TITLE	campione misterioso sotto il 7.2
DATA TYPE	ULTRAVIOLET SPECTRUM
ORIGIN	JASCO
OWNER	
DATE	19/11/21
TIME	17:19:44
SPECTROMETER/DATA SYSTEM	
RESOLUTION	
DELTAX	-1
XUNITS	NANOMETERS
YUNITS	TRANSMITTANCE
FIRSTX	 2500.0000
LASTX	  300.0000
NPOINTS	    2201
FIRSTY	    -0.06363
MAXY	     0.20934
MINY	    -0.20373
XYDATA
2500.0000	-0.0636315
2499.0000	-0.0257138
2498.0000	-0.00847179
2497.0000	0.0381666
2496.0000	0.0563203
2495.0000	0.0443269
2494.0000	0.124014
2493.0000	0.202481
2492.0000	0.149489
2491.0000	0.147928
2490.0000	0.0837243
2489.0000	0.048504
2488.0000	-0.00206994
2487.0000	0.0224474
2486.0000	0.074258
2485.0000	0.0313518
2484.0000	-0.0164464
2483.0000	-0.0232761
2482.0000	-0.0082153
2481.0000	0.0541883
2480.0000	0.0701826
2479.0000	0.0889162
2478.0000	0.137533
2477.0000	0.196317
2476.0000	0.107462
2475.0000	0.159851
2474.0000	0.154467
2473.0000	0.133868
2472.0000	0.130706
2471.0000	0.146085
2470.0000	0.207213
2469.0000	0.182969
2468.0000	0.0594513
2467.0000	-0.0177733
2466.0000	-0.0129448
2465.0000	-0.12144
2464.0000	-0.157903
2463.0000	-0.16962
2462.0000	-0.203731
2461.0000	-0.133411
2460.0000	-0.0443151
2459.0000	-0.0847909
2458.0000	-0.0656078
2457.0000	-0.104981
2456.0000	-0.0620443
2455.0000	-0.0389154
2454.0000	-0.0851293
2453.0000	-0.0974847
2452.0000	-0.070858
2451.0000	-0.0644066
2450.0000	-0.0484871
2449.0000	0.0222138
2448.0000	0.0157854
2447.0000	0.0769215
2446.0000	-0.0317235
2445.0000	-0.0337317
2444.0000	-0.0954837
2443.0000	-0.0655173
2442.0000	-0.0393925
2441.0000	-0.0362134
2440.0000	0.0282972
2439.0000	0.162507
2438.0000	0.081352
2437.0000	0.104623
2436.0000	0.0838727
2435.0000	-0.00484908
2434.0000	-0.0387161
2433.0000	-0.0335719
2432.0000	0.0278738
2431.0000	0.0334489
2430.0000	0.0275798
2429.0000	0.0589789
2428.0000	0.0655716
2427.0000	0.0890379
2426.0000	0.00772734
2425.0000	0.0250338
2424.0000	-0.0127081
2423.0000	0.0395535
2422.0000	0.0411368
2421.0000	0.0370631
2420.0000	0.149449
2419.0000	0.0890481
2418.0000	0.135995
2417.0000	0.167939
2416.0000	0.109626
2415.0000	0.0288351
2414.0000	0.0262509
2413.0000	-0.0107231
2412.0000	-0.076512
2411.0000	-0.0990962
2410.0000	-0.0862439
2409.0000	-0.0332772
2408.0000	-0.00101445
2407.0000	-0.0327226
2406.0000	0.00846681
2405.0000	0.0274385
2404.0000	-0.00820185
2403.0000	0.0162413
2402.0000	-0.00442954
2401.0000	0.0221076
2400.0000	0.00395975
2399.0000	-0.010663
2398.0000	0.0133099
2397.0000	0.0103667
2396.0000	-0.00842894
2395.0000	-0.0040664
2394.0000	0.00544409
2393.0000	0.0472254
2392.0000	0.0967387
2391.0000	0.0432036
2390.0000	0.0509455
2389.0000	0.044312
2388.0000	0.0157259
2387.0000	-0.0226236
2386.0000	-0.0742593
2385.0000	-0.0804881
2384.0000	-0.158727
2383.0000	-0.0903153
2382.0000	-0.075887
2381.0000	-0.0711225
2380.0000	-0.0792061
2379.0000	-0.0151486
2378.0000	-0.00593778
2377.0000	-0.0471375
2376.0000	-0.0435672
2375.0000	0.0469187
2374.0000	0.0484267
2373.0000	0.0930301
2372.0000	0.00278568
2371.0000	-0.0176956
2370.0000	-0.00809422
2369.0000	-0.0420398
2368.0000	-0.021291
2367.0000	-0.0576458
2366.0000	-0.012374
2365.0000	-0.0481226
2364.0000	-0.028883
2363.0000	-0.00621442
2362.0000	-0.000897221
2361.0000	0.0121502
2360.0000	-0.0205498
2359.0000	-0.033955
2358.0000	0.0100689
2357.0000	0.0160757
2356.0000	-0.00744974
2355.0000	-0.0208323
2354.0000	0.0352637
2353.0000	0.0820267
2352.0000	0.00208933
2351.0000	-0.0178449
2350.0000	0.0162731
2349.0000	-0.0399479
2348.0000	-0.0556238
2347.0000	-0.0734397
2346.0000	-0.101224
2345.0000	0.0083521
2344.0000	-0.0480175
2343.0000	-0.0385103
2342.0000	-0.0445208
2341.0000	0.00737061
2340.0000	0.0319706
2339.0000	0.0188664
2338.0000	0.0521693
2337.0000	0.0147536
2336.0000	0.0180255
2335.0000	-0.00866877
2334.0000	-0.0347961
2333.0000	-0.0772352
2332.0000	-0.029709
2331.0000	-0.0606093
2330.0000	-0.114101
2329.0000	-0.124628
2328.0000	-0.0770824
2327.0000	-0.0082865
2326.0000	-0.0294612
2325.0000	0.0189834
2324.0000	0.081585
2323.0000	0.113691
2322.0000	0.0882503
2321.0000	0.0465487
2320.0000	0.137198
2319.0000	0.156548
2318.0000	0.166033
2317.0000	0.174393
2316.0000	0.149104
2315.0000	0.199178
2314.0000	0.164415
2313.0000	0.0367717
2312.0000	0.0255531
2311.0000	0.01112
2310.0000	-0.0186513
2309.0000	-0.0567603
2308.0000	-0.0580316
2307.0000	-0.0513689
2306.0000	0.0367959
2305.0000	-0.0101266
2304.0000	0.0334194
2303.0000	0.0752832
2302.0000	0.0912188
2301.0000	0.0316612
2300.0000	-0.0514233
2299.0000	-0.123983
2298.0000	-0.0842563
2297.0000	-0.069994
2296.0000	-0.119095
2295.0000	-0.0942747
2294.0000	-0.119208
2293.0000	0.0146195
2292.0000	0.0377786
2291.0000	-0.019964
2290.0000	-0.0117706
2289.0000	-0.045236
2288.0000	-0.0698577
2287.0000	0.10695
2286.0000	0.158565
2285.0000	0.204574
2284.0000	0.195084
2283.0000	0.209344
2282.0000	0.197192
2281.0000	0.169329
2280.0000	0.104476
2279.0000	0.0941321
2278.0000	0.0804545
2277.0000	-0.013321
2276.0000	0.0371033
2275.0000	0.040447
2274.0000	-0.00188022
2273.0000	-0.00036768
2272.0000	0.0733784
2271.0000	0.046644
2270.0000	0.119945
2269.0000	0.153472
2268.0000	0.135826
2267.0000	0.133121
2266.0000	-0.0212546
2265.0000	0.0437203
2264.0000	0.0282451
2263.0000	-0.0429316
2262.0000	-0.0270414
2261.0000	0.0158207
2260.0000	0.0479644
2259.0000	0.125238
2258.0000	0.120377
2257.0000	0.117645
2256.0000	0.106832
2255.0000	0.176233
2254.0000	0.104943
2253.0000	0.0245797
2252.0000	0.0245262
2251.0000	0.0488148
2250.0000	0.021947
2249.0000	-0.0440121
2248.0000	-0.080663
2247.0000	-0.0560268
2246.0000	-0.0503651
2245.0000	-0.101993
2244.0000	-0.0647399
2243.0000	-0.0400319
2242.0000	0.0621209
2241.0000	0.15912
2240.0000	0.170226
2239.0000	0.104722
2238.0000	0.134032
2237.0000	0.0635611
2236.0000	0.0586408
2235.0000	-0.0372298
2234.0000	0.0389037
2233.0000	-0.0194052
2232.0000	0.0597056
2231.0000	0.0607713
2230.0000	0.0143656
2229.0000	-0.00549747
2228.0000	-0.0545398
2227.0000	-0.0409509
2226.0000	0.0115098
2225.0000	0.0544834
2224.0000	0.0585392
2223.0000	-0.0164803
2222.0000	0.11022
2221.0000	0.105881
2220.0000	0.0919359
2219.0000	0.0300059
2218.0000	-0.0124541
2217.0000	0.0275489
2216.0000	-0.0204225
2215.0000	-0.0467597
2214.0000	-0.0793219
2213.0000	-0.00800641
2212.0000	0.0405397
2211.0000	0.175931
2210.0000	0.0964719
2209.0000	0.0474386
2208.0000	0.0945856
2207.0000	0.116239
2206.0000	0.0899864
2205.0000	0.00823969
2204.0000	0.0408804
2203.0000	-0.0089888
2202.0000	0.0698835
2201.0000	0.0488491
2200.0000	0.0698424
2199.0000	0.136175
2198.0000	0.0761852
2197.0000	0.0896935
2196.0000	0.0302791
2195.0000	-0.0120134
2194.0000	-0.0151387
2193.0000	-0.0041247
2192.0000	-0.063011
2191.0000	-0.0802624
2190.0000	-0.064373
2189.0000	-0.00259434
2188.0000	0.00700934
2187.0000	-0.0363706
2186.0000	-0.0972172
2185.0000	-0.0069947
2184.0000	0.084611
2183.0000	-0.0598166
2182.0000	-0.00959553
2181.0000	0.0343287
2180.0000	0.033059
2179.0000	0.092589
2178.0000	0.0476137
2177.0000	0.107557
2176.0000	0.150205
2175.0000	0.115827
2174.0000	0.0942317
2173.0000	0.119775
2172.0000	0.0370531
2171.0000	-0.0028294
2170.0000	-0.0909291
2169.0000	-0.139979
2168.0000	-0.11778
2167.0000	-0.165598
2166.0000	-0.0890452
2165.0000	-0.0143828
2164.0000	0.0165711
2163.0000	0.0528741
2162.0000	0.0937978
2161.0000	0.135193
2160.0000	0.112633
2159.0000	0.122064
2158.0000	0.102134
2157.0000	0.0124539
2156.0000	0.0275765
2155.0000	-0.00811815
2154.0000	-0.034695
2153.0000	-0.00320556
2152.0000	-0.00596397
2151.0000	0.0066296
2150.0000	0.0011915
2149.0000	-0.00859735
2148.0000	0.0160736
2147.0000	0.0591636
2146.0000	0.0252349
2145.0000	0.00226661
2144.0000	-0.0139894
2143.0000	-0.00379065
2142.0000	-0.0626624
2141.0000	-0.165196
2140.0000	-0.178599
2139.0000	-0.142056
2138.0000	-0.114495
2137.0000	-0.0822052
2136.0000	-0.0649102
2135.0000	-0.0343505
2134.0000	-0.0714763
2133.0000	-0.0848639
2132.0000	-0.0246624
2131.0000	-0.0538905
2130.0000	-0.160156
2129.0000	-0.129057
2128.0000	-0.0409906
2127.0000	-0.075286
2126.0000	-0.0272716
2125.0000	-0.062804
2124.0000	-0.0435986
2123.0000	-0.0275007
2122.0000	-0.0698814
2121.0000	-0.0144992
2120.0000	-0.0735844
2119.0000	0.0244264
2118.0000	0.0938917
2117.0000	0.0748949
2116.0000	0.114112
2115.0000	0.153126
2114.0000	0.107484
2113.0000	0.0754936
2112.0000	-0.0113634
2111.0000	0.0139266
2110.0000	-0.034763
2109.0000	-0.0537845
2108.0000	-0.00348574
2107.0000	0.040213
2106.0000	0.0868682
2105.0000	0.0831324
2104.0000	-0.023252
2103.0000	0.0270076
2102.0000	-0.0101073
2101.0000	-0.0763892
2100.0000	-0.0527987
2099.0000	-0.0495066
2098.0000	-0.0182408
2097.0000	-0.0416289
2096.0000	-0.0349137
2095.0000	-0.0669756
2094.0000	-0.0647914
2093.0000	-0.0521412
2092.0000	-0.0208337
2091.0000	0.0420634
2090.0000	-0.0525694
2089.0000	-0.0474008
2088.0000	0.0662574
2087.0000	0.055251
2086.0000	0.108173
2085.0000	0.00617847
2084.0000	0.0392995
2083.0000	0.0244774
2082.0000	-0.00757206
2081.0000	-0.00818523
2080.0000	-0.0568019
2079.0000	-0.13981
2078.0000	-0.15454
2077.0000	-0.113287
2076.0000	-0.0750159
2075.0000	-0.072052
2074.0000	-0.0734702
2073.0000	-0.0239644
2072.0000	-0.0276741
2071.0000	-0.0255404
2070.0000	-0.0549296
2069.0000	-0.0764001
2068.0000	-0.0762658
2067.0000	-0.0176538
2066.0000	0.00785939
2065.0000	-0.00354839
2064.0000	0.0126235
2063.0000	-0.0509763
2062.0000	0.0109539
2061.0000	0.0316005
2060.0000	0.0168377
2059.0000	0.0241322
2058.0000	0.0209594
2057.0000	0.0686026
2056.0000	0.114489
2055.0000	0.0789377
2054.0000	0.028636
2053.0000	0.0502506
2052.0000	-0.00636668
2051.0000	-0.0214071
2050.0000	-0.0294338
2049.0000	-0.0220456
2048.0000	-0.00747726
2047.0000	-0.0113207
2046.0000	0.0586588
2045.0000	0.089596
2044.0000	0.0686738
2043.0000	0.0507338
2042.0000	0.0746676
2041.0000	0.0291462
2040.0000	-0.0367028
2039.0000	0.000639834
2038.0000	0.0258962
2037.0000	0.0415966
2036.0000	-0.0134634
2035.0000	-0.0686783
2034.0000	-0.0236508
2033.0000	-0.0637118
2032.0000	-0.0662514
2031.0000	-0.0286656
2030.0000	0.0693543
2029.0000	0.109562
2028.0000	0.0547094
2027.0000	0.152711
2026.0000	0.149767
2025.0000	0.0464775
2024.0000	-0.0213103
2023.0000	0.0260406
2022.0000	0.11026
2021.0000	0.0157745
2020.0000	-0.0421163
2019.0000	-0.0283533
2018.0000	0.00852247
2017.0000	-0.0553149
2016.0000	-0.146205
2015.0000	-0.107965
2014.0000	-0.166219
2013.0000	-0.0688499
2012.0000	-0.0857116
2011.0000	-0.0817564
2010.0000	-0.00991347
2009.0000	0.00186761
2008.0000	-0.0116355
2007.0000	0.0101782
2006.0000	0.00949633
2005.0000	-0.0571413
2004.0000	0.0507414
2003.0000	0.0572589
2002.0000	0.130538
2001.0000	0.0922573
2000.0000	0.0384977
1999.0000	0.135507
1998.0000	0.0918256
1997.0000	0.0783459
1996.0000	0.0861038
1995.0000	0.0194255
1994.0000	0.0328283
1993.0000	0.0752909
1992.0000	0.0464095
1991.0000	0.00973482
1990.0000	0.10737
1989.0000	0.0733772
1988.0000	0.0998641
1987.0000	-0.00392365
1986.0000	0.0438096
1985.0000	0.042296
1984.0000	0.0821105
1983.0000	0.00525888
1982.0000	-0.0555067
1981.0000	-0.0318643
1980.0000	-0.0484986
1979.0000	-0.0564687
1978.0000	-0.0352178
1977.0000	0.0120489
1976.0000	-0.0180296
1975.0000	0.0536525
1974.0000	0.000611663
1973.0000	0.0535794
1972.0000	-0.072025
1971.0000	-0.0512004
1970.0000	-0.0404451
1969.0000	-0.00716496
1968.0000	-0.0504371
1967.0000	-0.0951261
1966.0000	-0.0831064
1965.0000	-0.042507
1964.0000	-0.03198
1963.0000	-0.0851773
1962.0000	-0.111934
1961.0000	-0.15476
1960.0000	-0.105306
1959.0000	-0.072667
1958.0000	-0.084353
1957.0000	-0.0899209
1956.0000	-0.0108008
1955.0000	0.0665946
1954.0000	0.0542597
1953.0000	-0.0281832
1952.0000	0.0136665
1951.0000	-0.00303169
1950.0000	-0.0303809
1949.0000	-0.0621238
1948.0000	-0.0126982
1947.0000	-0.0235634
1946.0000	0.023107
1945.0000	0.0149047
1944.0000	-0.0578781
1943.0000	0.00135866
1942.0000	-0.0489635
1941.0000	-0.145616
1940.0000	-0.137969
1939.0000	-0.107459
1938.0000	-0.0960216
1937.0000	-0.0675333
1936.0000	-0.0889305
1935.0000	-0.000226185
1934.0000	0.0411953
1933.0000	0.0176019
1932.0000	0.0367035
1931.0000	0.0337317
1930.0000	0.0384306
1929.0000	0.0609912
1928.0000	0.0156179
1927.0000	-0.0545561
1926.0000	0.00741772
1925.0000	-0.0142807
1924.0000	-0.0463386
1923.0000	-0.071217
1922.0000	-0.0616992
1921.0000	0.0267409
1920.0000	0.0422148
1919.0000	0.0169515
1918.0000	0.031499
1917.0000	-0.0339266
1916.0000	-0.107984
1915.0000	-0.0630909
1914.0000	-0.106661
1913.0000	-0.0989365
1912.0000	-0.0657926
1911.0000	0.00241573
1910.0000	0.0748172
1909.0000	0.0798091
1908.0000	0.0260112
1907.0000	-0.0280262
1906.0000	-0.0666735
1905.0000	-0.0394004
1904.0000	0.0492053
1903.0000	-0.00796906
1902.0000	0.0882494
1901.0000	0.0123459
1900.0000	0.148878
1899.0000	0.114663
1898.0000	0.120839
1897.0000	0.0620855
1896.0000	0.000947235
1895.0000	0.00170863
1894.0000	-0.019471
1893.0000	-0.0334715
1892.0000	-0.0710541
1891.0000	-0.11946
1890.0000	-0.0456826
1889.0000	-0.0547786
1888.0000	-0.0211647
1887.0000	0.0398264
1886.0000	0.0657752
1885.0000	0.0987658
1884.0000	0.0920382
1883.0000	0.065559
1882.0000	0.0861171
1881.0000	0.0832921
1880.0000	0.057672
1879.0000	-0.00742713
1878.0000	-0.0302779
1877.0000	0.0214908
1876.0000	-0.0874613
1875.0000	-0.107417
1874.0000	-0.114847
1873.0000	-0.0338161
1872.0000	-0.0745599
1871.0000	0.00807115
1870.0000	-0.130037
1869.0000	-0.0434103
1868.0000	0.0143305
1867.0000	0.0634325
1866.0000	0.0531584
1865.0000	0.10164
1864.0000	0.0825812
1863.0000	0.130443
1862.0000	0.0978581
1861.0000	-0.00267813
1860.0000	-0.0169726
1859.0000	-0.0931489
1858.0000	-0.075644
1857.0000	-0.0602975
1856.0000	-0.044761
1855.0000	-0.0144597
1854.0000	-0.0315396
1853.0000	0.0324764
1852.0000	0.0600689
1851.0000	0.00550449
1850.0000	-0.0204764
1849.0000	0.0376339
1848.0000	0.0633964
1847.0000	0.0695084
1846.0000	0.0501806
1845.0000	0.105395
1844.0000	0.0762773
1843.0000	0.0664774
1842.0000	0.000713313
1841.0000	-0.0198028
1840.0000	0.0101215
1839.0000	-0.0482217
1838.0000	-0.0315997
1837.0000	0.0159944
1836.0000	-0.0310935
1835.0000	0.00635442
1834.0000	0.0745061
1833.0000	0.0724314
1832.0000	0.0345881
1831.0000	-0.0389214
1830.0000	-0.0511139
1829.0000	-0.0612402
1828.0000	-0.0440561
1827.0000	-0.130221
1826.0000	-0.0231402
1825.0000	0.0265455
1824.0000	0.0434356
1823.0000	0.0299794
1822.0000	0.0620445
1821.0000	0.0192882
1820.0000	0.0241512
1819.0000	-0.0162325
1818.0000	0.0269744
1817.0000	0.0329145
1816.0000	-0.0191778
1815.0000	0.0212921
1814.0000	0.0259385
1813.0000	0.0430628
1812.0000	0.0322443
1811.0000	0.000221336
1810.0000	-0.00191967
1809.0000	0.0221394
1808.0000	-0.0381098
1807.0000	-0.0985225
1806.0000	-0.145878
1805.0000	-0.139479
1804.0000	-0.108426
1803.0000	-0.0238058
1802.0000	-0.0844443
1801.0000	-0.00306329
1800.0000	0.0459192
1799.0000	0.0628399
1798.0000	0.0677215
1797.0000	0.00479009
1796.0000	-0.000425419
1795.0000	-0.0320578
1794.0000	-0.0353158
1793.0000	0.00984317
1792.0000	-0.0168265
1791.0000	-0.0254286
1790.0000	-0.0170482
1789.0000	0.0210182
1788.0000	0.0380892
1787.0000	-0.0194813
1786.0000	-0.0501231
1785.0000	-0.0212077
1784.0000	-0.0225862
1783.0000	0.00569858
1782.0000	0.00362996
1781.0000	-0.0100592
1780.0000	0.0243865
1779.0000	0.0117628
1778.0000	-0.0206705
1777.0000	-0.0114248
1776.0000	-0.0128353
1775.0000	0.0128817
1774.0000	0.00490256
1773.0000	0.0340991
1772.0000	0.0143589
1771.0000	0.0403096
1770.0000	0.0255902
1769.0000	0.0348335
1768.0000	0.0317337
1767.0000	0.0100756
1766.0000	0.0469956
1765.0000	0.0242171
1764.0000	-0.00808891
1763.0000	-0.00634235
1762.0000	-0.0242965
1761.0000	-0.029511
1760.0000	-0.0737764
1759.0000	-0.0945707
1758.0000	-0.050667
1757.0000	-0.0274183
1756.0000	-0.027565
1755.0000	0.0107463
1754.0000	0.00479594
1753.0000	0.0170191
1752.0000	-0.0204807
1751.0000	0.00891973
1750.0000	0.0109125
1749.0000	-0.0124184
1748.0000	-0.01441
1747.0000	0.0369425
1746.0000	0.0411175
1745.0000	0.0409613
1744.0000	0.0408435
1743.0000	0.0318544
1742.0000	-0.00193818
1741.0000	0.0123431
1740.0000	0.00939708
1739.0000	0.0257235
1738.0000	0.0138522
1737.0000	0.0049666
1736.0000	0.0153728
1735.0000	0.0397351
1734.0000	0.0340836
1733.0000	0.0294105
1732.0000	-0.0293778
1731.0000	-0.0171752
1730.0000	-0.024971
1729.0000	-0.0401013
1728.0000	-0.0598803
1727.0000	-0.0637799
1726.0000	-0.0322807
1725.0000	-0.0295648
1724.0000	-0.00840546
1723.0000	-0.0212161
1722.0000	0.00513078
1721.0000	0.0305493
1720.0000	0.0191497
1719.0000	-0.00706102
1718.0000	0.000427111
1717.0000	0.00247194
1716.0000	0.0174984
1715.0000	-0.0320225
1714.0000	-0.0186974
1713.0000	-0.0226299
1712.0000	-0.0326879
1711.0000	-0.0106148
1710.0000	-0.0153842
1709.0000	0.00897117
1708.0000	-0.0300583
1707.0000	-0.00326024
1706.0000	0.0178853
1705.0000	0.0407821
1704.0000	0.0530326
1703.0000	0.0394972
1702.0000	0.0162016
1701.0000	-0.00698673
1700.0000	-0.0326733
1699.0000	-0.0545912
1698.0000	-0.0757763
1697.0000	-0.00191648
1696.0000	0.056588
1695.0000	0.0817021
1694.0000	0.0364409
1693.0000	0.105197
1692.0000	0.104599
1691.0000	0.0708703
1690.0000	-0.00138939
1689.0000	-0.0555784
1688.0000	-0.0378913
1687.0000	-0.0142932
1686.0000	-0.0443822
1685.0000	-0.0450278
1684.0000	-0.0246762
1683.0000	-0.000246935
1682.0000	0.0396926
1681.0000	-0.0156478
1680.0000	0.0448869
1679.0000	0.0291964
1678.0000	-0.0128261
1677.0000	0.0469284
1676.0000	0.0418439
1675.0000	0.0900126
1674.0000	0.111275
1673.0000	0.0732661
1672.0000	0.109334
1671.0000	0.0332105
1670.0000	-0.0183369
1669.0000	-0.0242752
1668.0000	-0.0410495
1667.0000	-0.0380417
1666.0000	-0.0548316
1665.0000	-0.0262904
1664.0000	0.0246405
1663.0000	0.0273311
1662.0000	-0.0130102
1661.0000	0.000104526
1660.0000	0.00400853
1659.0000	-0.00145635
1658.0000	-0.0191023
1657.0000	-0.0238119
1656.0000	-0.0117025
1655.0000	-0.0207586
1654.0000	-0.0229233
1653.0000	-0.0619168
1652.0000	-0.0707879
1651.0000	-0.0627635
1650.0000	-0.0954055
1649.0000	-0.0474243
1648.0000	-0.0741421
1647.0000	-0.0155301
1646.0000	0.021104
1645.0000	0.0149524
1644.0000	-0.0127321
1643.0000	-0.000580653
1642.0000	-0.047749
1641.0000	-0.0647185
1640.0000	-0.0430587
1639.0000	-0.0356458
1638.0000	-0.0786119
1637.0000	-0.100073
1636.0000	-0.0733755
1635.0000	-0.046928
1634.0000	-0.111082
1633.0000	-0.0675886
1632.0000	-0.0594365
1631.0000	-0.0129739
1630.0000	0.00141217
1629.0000	0.00703466
1628.0000	0.0270553
1627.0000	0.0971626
1626.0000	0.0788614
1625.0000	0.0893778
1624.0000	0.0701415
1623.0000	0.0589669
1622.0000	0.074174
1621.0000	0.00511243
1620.0000	-0.00565112
1619.0000	-0.00255634
1618.0000	-0.00619564
1617.0000	0.00154987
1616.0000	-0.0590695
1615.0000	-0.0381273
1614.0000	-0.0296231
1613.0000	0.00980557
1612.0000	-0.00712798
1611.0000	-0.00536849
1610.0000	0.0148
1609.0000	0.0277905
1608.0000	0.0265127
1607.0000	0.0118339
1606.0000	-0.00107339
1605.0000	0.0216008
1604.0000	0.0385857
1603.0000	0.0179821
1602.0000	-0.00929368
1601.0000	0.0274016
1600.0000	0.0256316
1599.0000	0.0204855
1598.0000	0.0029713
1597.0000	0.000710183
1596.0000	0.00948979
1595.0000	-0.0395341
1594.0000	-0.0778618
1593.0000	-0.0662527
1592.0000	-0.0623268
1591.0000	-0.0929768
1590.0000	-0.0919537
1589.0000	-0.05297
1588.0000	-0.0314827
1587.0000	0.00175358
1586.0000	0.0227197
1585.0000	0.0647236
1584.0000	0.0706085
1583.0000	0.0852837
1582.0000	0.0368035
1581.0000	0.0736004
1580.0000	0.0616623
1579.0000	0.00720428
1578.0000	-0.0089411
1577.0000	0.0206075
1576.0000	0.0400487
1575.0000	0.041971
1574.0000	0.00665846
1573.0000	0.0584659
1572.0000	0.039759
1571.0000	-0.00372291
1570.0000	0.0329426
1569.0000	0.0072048
1568.0000	0.00389874
1567.0000	-0.0275792
1566.0000	-0.0282717
1565.0000	-0.00991455
1564.0000	-0.00525867
1563.0000	0.0239056
1562.0000	0.0288242
1561.0000	0.0513239
1560.0000	0.0714617
1559.0000	0.0667869
1558.0000	0.0814508
1557.0000	0.0590207
1556.0000	-0.00374093
1555.0000	-0.0257182
1554.0000	-0.0583559
1553.0000	-0.0625408
1552.0000	-0.058083
1551.0000	-0.0799374
1550.0000	-0.0636644
1549.0000	-0.0497778
1548.0000	-0.0527597
1547.0000	-0.0144889
1546.0000	-0.0187138
1545.0000	-0.0370646
1544.0000	0.00220857
1543.0000	-0.00116561
1542.0000	0.0285757
1541.0000	0.00993444
1540.0000	0.000824611
1539.0000	0.0220414
1538.0000	0.0176854
1537.0000	-0.0061016
1536.0000	0.0104487
1535.0000	-0.0234818
1534.0000	-0.0096704
1533.0000	-0.0481959
1532.0000	0.0105852
1531.0000	-0.0133877
1530.0000	-0.0377787
1529.0000	-0.0263086
1528.0000	-0.00112809
1527.0000	-0.0110739
1526.0000	-0.0274263
1525.0000	-0.0474574
1524.0000	-0.0109982
1523.0000	0.0249642
1522.0000	0.0326767
1521.0000	0.0198538
1520.0000	-0.00913144
1519.0000	-0.0223244
1518.0000	-0.00928542
1517.0000	-0.00573644
1516.0000	-0.0223821
1515.0000	-0.0238275
1514.0000	-0.036363
1513.0000	-0.00880574
1512.0000	-0.0215169
1511.0000	0.00518931
1510.0000	0.0160944
1509.0000	0.0214738
1508.0000	-0.000948695
1507.0000	-0.0314262
1506.0000	-0.0343367
1505.0000	-0.0215612
1504.0000	-0.0278205
1503.0000	-0.0467585
1502.0000	-0.0279957
1501.0000	-0.0097525
1500.0000	0.0353399
1499.0000	0.0203764
1498.0000	0.00228538
1497.0000	0.020762
1496.0000	0.0411641
1495.0000	0.0270515
1494.0000	-0.0199961
1493.0000	-0.0392197
1492.0000	-0.0361071
1491.0000	-0.0115795
1490.0000	-0.0570035
1489.0000	-0.032243
1488.0000	-0.0429711
1487.0000	0.00101231
1486.0000	0.0338042
1485.0000	0.0548936
1484.0000	0.0491629
1483.0000	0.0544251
1482.0000	0.0210248
1481.0000	0.0327289
1480.0000	-0.0155817
1479.0000	-0.0328194
1478.0000	-0.0328543
1477.0000	-0.0418231
1476.0000	-0.0550729
1475.0000	-0.0257722
1474.0000	-0.0227063
1473.0000	0.0154884
1472.0000	-0.0167102
1471.0000	-0.0160433
1470.0000	0.00851323
1469.0000	0.0200555
1468.0000	0.042543
1467.0000	0.0427307
1466.0000	0.0269151
1465.0000	0.0256876
1464.0000	-0.022113
1463.0000	-0.00439705
1462.0000	-0.0191686
1461.0000	-0.0666648
1460.0000	-0.0639626
1459.0000	-0.0737389
1458.0000	-0.0470925
1457.0000	-0.0595352
1456.0000	-0.0319807
1455.0000	-0.0469825
1454.0000	-0.0167752
1453.0000	-0.019109
1452.0000	0.00087661
1451.0000	0.00834027
1450.0000	-0.0121757
1449.0000	-0.036911
1448.0000	-0.0599413
1447.0000	-0.067654
1446.0000	-0.0620756
1445.0000	-0.0831464
1444.0000	-0.0619943
1443.0000	-0.0316751
1442.0000	0.00500539
1441.0000	0.0124293
1440.0000	0.0350692
1439.0000	0.0165027
1438.0000	0.0163689
1437.0000	0.0199538
1436.0000	-0.00920368
1435.0000	-0.0103239
1434.0000	-0.00300497
1433.0000	-0.016124
1432.0000	-0.0208549
1431.0000	0.010592
1430.0000	0.00932843
1429.0000	0.0135617
1428.0000	0.0291312
1427.0000	0.0043594
1426.0000	0.0282837
1425.0000	0.0168102
1424.0000	-0.00104608
1423.0000	0.00110609
1422.0000	-0.0306501
1421.0000	0.00658644
1420.0000	0.0326395
1419.0000	0.0163438
1418.0000	-0.0183652
1417.0000	-0.00943077
1416.0000	0.0118083
1415.0000	-0.00639362
1414.0000	-0.00915743
1413.0000	0.00194976
1412.0000	0.0291003
1411.0000	0.0611803
1410.0000	0.0783206
1409.0000	0.069294
1408.0000	0.0783912
1407.0000	0.0615226
1406.0000	0.0488042
1405.0000	0.0381771
1404.0000	-0.0128135
1403.0000	0.00822527
1402.0000	-0.0117299
1401.0000	0.015021
1400.0000	0.00421206
1399.0000	-0.0321256
1398.0000	-0.00975806
1397.0000	0.0317952
1396.0000	-0.000152048
1395.0000	-0.00685176
1394.0000	-0.00223703
1393.0000	0.0132332
1392.0000	-0.0176184
1391.0000	-0.0151215
1390.0000	-0.00614667
1389.0000	0.0111083
1388.0000	0.0162105
1387.0000	0.0161497
1386.0000	0.0127063
1385.0000	0.0204045
1384.0000	-0.000528537
1383.0000	-0.0155634
1382.0000	-0.0239946
1381.0000	-0.0432826
1380.0000	-0.00836066
1379.0000	-0.025282
1378.0000	-0.0217324
1377.0000	-0.0105563
1376.0000	-0.0243661
1375.0000	-0.0480856
1374.0000	-0.0414302
1373.0000	-0.0570123
1372.0000	-0.0300204
1371.0000	0.0312248
1370.0000	0.0402218
1369.0000	0.0716587
1368.0000	0.0372115
1367.0000	0.0430665
1366.0000	0.0609507
1365.0000	0.0151714
1364.0000	-0.001554
1363.0000	0.00218797
1362.0000	0.0203966
1361.0000	0.0335867
1360.0000	-0.0155256
1359.0000	-0.016936
1358.0000	-0.030956
1357.0000	-0.0174469
1356.0000	-0.0123193
1355.0000	-0.0228756
1354.0000	0.00411534
1353.0000	-0.00885554
1352.0000	0.00438757
1351.0000	0.00516189
1350.0000	-0.00296678
1349.0000	0.000918924
1348.0000	-0.0119121
1347.0000	-0.0309104
1346.0000	0.00807967
1345.0000	0.00389527
1344.0000	0.00995952
1343.0000	0.0210737
1342.0000	-0.00685544
1341.0000	0.00777358
1340.0000	-0.00955767
1339.0000	0.0163908
1338.0000	0.00717885
1337.0000	-0.0222038
1336.0000	-0.00670377
1335.0000	-0.00467427
1334.0000	-0.00548066
1333.0000	-0.0411238
1332.0000	-0.0491416
1331.0000	-0.0324281
1330.0000	-0.0161648
1329.0000	-0.0444567
1328.0000	-0.0134549
1327.0000	0.010097
1326.0000	-0.0074712
1325.0000	0.0255922
1324.0000	-0.0275217
1323.0000	-0.029139
1322.0000	-0.0210139
1321.0000	-0.0422831
1320.0000	-0.045002
1319.0000	-0.0439988
1318.0000	-0.064146
1317.0000	-0.0567331
1316.0000	-0.0612406
1315.0000	-0.0522562
1314.0000	-0.0193955
1313.0000	-0.024435
1312.0000	-0.0130392
1311.0000	-0.00784471
1310.0000	0.00238885
1309.0000	0.0054458
1308.0000	-0.0213473
1307.0000	-0.00820941
1306.0000	-0.0226437
1305.0000	-0.0545482
1304.0000	-0.0445738
1303.0000	-0.0657657
1302.0000	-0.08309
1301.0000	-0.0367441
1300.0000	-0.0223007
1299.0000	0.00430461
1298.0000	0.0360357
1297.0000	0.040014
1296.0000	0.0635734
1295.0000	0.0721306
1294.0000	0.0522471
1293.0000	0.0365161
1292.0000	0.0307823
1291.0000	0.0040801
1290.0000	0.00759396
1289.0000	-0.0330483
1288.0000	-0.037806
1287.0000	-0.0256076
1286.0000	-0.0253943
1285.0000	-0.0128918
1284.0000	0.0179267
1283.0000	0.0186662
1282.0000	0.02542
1281.0000	0.00114129
1280.0000	0.0176593
1279.0000	0.0293753
1278.0000	0.00188443
1277.0000	-0.0135763
1276.0000	-0.000656957
1275.0000	-0.0048384
1274.0000	-0.022267
1273.0000	-0.00178963
1272.0000	0.00667197
1271.0000	-0.00999829
1270.0000	-0.0052189
1269.0000	-0.00983701
1268.0000	-0.00520147
1267.0000	-0.0186778
1266.0000	-0.048019
1265.0000	-0.0153274
1264.0000	-0.0378116
1263.0000	-0.0217303
1262.0000	-0.0370206
1261.0000	-0.013484
1260.0000	-0.00539282
1259.0000	-0.0119151
1258.0000	-0.0249987
1257.0000	-0.0195981
1256.0000	-0.0472025
1255.0000	-0.0404037
1254.0000	-0.0331233
1253.0000	-0.0457405
1252.0000	-0.0238511
1251.0000	-0.0168742
1250.0000	-0.0080695
1249.0000	0.0287262
1248.0000	0.00924982
1247.0000	-0.0127345
1246.0000	-0.0144931
1245.0000	-0.030802
1244.0000	-0.010664
1243.0000	-0.0171411
1242.0000	0.00375619
1241.0000	0.00241933
1240.0000	0.00282061
1239.0000	0.0260913
1238.0000	0.0168394
1237.0000	0.0203266
1236.0000	0.0105791
1235.0000	0.0139664
1234.0000	-0.000167834
1233.0000	-0.0267774
1232.0000	-0.0111703
1231.0000	-0.00122927
1230.0000	-0.0090997
1229.0000	-0.0143224
1228.0000	0.0101392
1227.0000	0.0328991
1226.0000	0.051207
1225.0000	0.0404583
1224.0000	0.0295262
1223.0000	0.0154734
1222.0000	0.0121915
1221.0000	-0.00408877
1220.0000	-0.00729975
1219.0000	-0.0238052
1218.0000	-0.0141773
1217.0000	-0.0195763
1216.0000	0.00147036
1215.0000	0.00467124
1214.0000	-0.00976423
1213.0000	-0.00939241
1212.0000	-0.00553164
1211.0000	-0.0159259
1210.0000	-0.0105657
1209.0000	-0.0372699
1208.0000	-0.0027592
1207.0000	0.0062344
1206.0000	0.0126972
1205.0000	0.0354927
1204.0000	0.0343044
1203.0000	0.039508
1202.0000	0.037736
1201.0000	0.0142834
1200.0000	0.0566525
1199.0000	0.0273011
1198.0000	-0.0248133
1197.0000	-0.0151767
1196.0000	-0.0384235
1195.0000	-0.0460702
1194.0000	-0.0453051
1193.0000	-0.0271721
1192.0000	0.00641474
1191.0000	0.0238425
1190.0000	0.0195961
1189.0000	0.0242469
1188.0000	-0.00669907
1187.0000	-0.0126783
1186.0000	-0.0398367
1185.0000	-0.0375066
1184.0000	-0.0540322
1183.0000	-0.0511363
1182.0000	-0.0310043
1181.0000	-0.0378524
1180.0000	-0.0370399
1179.0000	-0.00542233
1178.0000	-0.0216094
1177.0000	-0.0282536
1176.0000	-0.0266354
1175.0000	-0.0360557
1174.0000	-0.0459005
1173.0000	-0.0668944
1172.0000	-0.0464524
1171.0000	-0.0505885
1170.0000	-0.0314081
1169.0000	-0.0367528
1168.0000	-0.0255485
1167.0000	-0.0240827
1166.0000	-0.0234288
1165.0000	-0.0637308
1164.0000	-0.04459
1163.0000	-0.0541812
1162.0000	-0.0549606
1161.0000	-0.0729536
1160.0000	-0.0809184
1159.0000	-0.0337288
1158.0000	-0.0059551
1157.0000	0.00327072
1156.0000	0.0211416
1155.0000	0.0338534
1154.0000	0.0657882
1153.0000	0.0425818
1152.0000	0.0407614
1151.0000	0.0350545
1150.0000	0.0326624
1149.0000	0.0339542
1148.0000	-0.0034729
1147.0000	-0.0070942
1146.0000	-0.0153757
1145.0000	-0.0193058
1144.0000	-0.00702226
1143.0000	0.00849659
1142.0000	0.0198265
1141.0000	0.0155167
1140.0000	0.00857573
1139.0000	-0.0415439
1138.0000	-0.0452536
1137.0000	-0.0708799
1136.0000	-0.0809271
1135.0000	-0.0396052
1134.0000	-0.0386631
1133.0000	-0.0277809
1132.0000	0.00729123
1131.0000	-0.00970063
1130.0000	-0.0132148
1129.0000	-0.0466878
1128.0000	-0.0520463
1127.0000	-0.0488311
1126.0000	-0.0293494
1125.0000	-0.024531
1124.0000	-0.0314323
1123.0000	-0.0141868
1122.0000	-0.0150797
1121.0000	-0.000857046
1120.0000	0.00649544
1119.0000	-0.0161691
1118.0000	-0.0305247
1117.0000	-0.01876
1116.0000	-0.0180906
1115.0000	-0.00704506
1114.0000	-0.022796
1113.0000	-0.013564
1112.0000	0.00612731
1111.0000	0.00510574
1110.0000	-0.0146881
1109.0000	-0.0223245
1108.0000	-0.020218
1107.0000	-0.047861
1106.0000	-0.0919082
1105.0000	-0.0617416
1104.0000	-0.0319551
1103.0000	-0.0122488
1102.0000	-0.00437556
1101.0000	0.00784797
1100.0000	0.0187444
1099.0000	-0.00384262
1098.0000	0.000331184
1097.0000	-0.0640826
1096.0000	-0.0298108
1095.0000	-0.0536213
1094.0000	-0.0218965
1093.0000	-0.02193
1092.0000	-0.0366082
1091.0000	-0.0346499
1090.0000	-0.0266917
1089.0000	-0.0349232
1088.0000	-0.0545413
1087.0000	-0.0513387
1086.0000	-0.0374729
1085.0000	-0.0286236
1084.0000	-0.0346517
1083.0000	-0.0387798
1082.0000	-0.00434396
1081.0000	-0.0211223
1080.0000	-0.0413626
1079.0000	-0.0202008
1078.0000	-0.0173024
1077.0000	0.015068
1076.0000	-0.00933372
1075.0000	0.00255955
1074.0000	0.00878055
1073.0000	-0.0026141
1072.0000	-0.0188533
1071.0000	-0.0408256
1070.0000	-0.0488385
1069.0000	-0.0520285
1068.0000	-0.0337286
1067.0000	-0.0116013
1066.0000	-0.0240407
1065.0000	-0.0197222
1064.0000	0.014728
1063.0000	0.0178682
1062.0000	0.0287584
1061.0000	0.0167163
1060.0000	0.0151731
1059.0000	0.0291177
1058.0000	0.0348935
1057.0000	0.0407741
1056.0000	0.0410289
1055.0000	-0.0100259
1054.0000	-0.0279962
1053.0000	-0.0170879
1052.0000	-0.0102807
1051.0000	-0.0225656
1050.0000	-0.00841895
1049.0000	-0.00652887
1048.0000	0.0336165
1047.0000	0.00639141
1046.0000	0.00394759
1045.0000	-0.0168268
1044.0000	-0.0241891
1043.0000	-0.0167098
1042.0000	-0.0405812
1041.0000	-0.0389436
1040.0000	-0.022035
1039.0000	-0.0221913
1038.0000	-0.00426566
1037.0000	-0.0310505
1036.0000	-0.0121095
1035.0000	-0.0100255
1034.0000	-0.0138897
1033.0000	-0.0190483
1032.0000	-0.02652
1031.0000	-0.0339193
1030.0000	-0.0339964
1029.0000	-0.0637347
1028.0000	-0.0557487
1027.0000	-0.0608131
1026.0000	-0.0299763
1025.0000	-0.0352668
1024.0000	-0.0395025
1023.0000	-0.0522872
1022.0000	-0.0557228
1021.0000	-0.0602
1020.0000	-0.0604293
1019.0000	-0.0547661
1018.0000	-0.0140949
1017.0000	-0.0320541
1016.0000	-0.0111265
1015.0000	-0.0294844
1014.0000	0.00391574
1013.0000	0.0239794
1012.0000	0.0114332
1011.0000	0.0122388
1010.0000	0.0033724
1009.0000	0.0188387
1008.0000	0.0131576
1007.0000	-0.0218525
1006.0000	0.0127442
1005.0000	0.00676561
1004.0000	0.0165602
1003.0000	-0.0151247
1002.0000	-0.0194032
1001.0000	0.0207943
1000.0000	-0.0474849
999.0000	-0.0522567
998.0000	-0.0895588
997.0000	-0.0617143
996.0000	-0.0461593
995.0000	-0.079833
994.0000	-0.0457877
993.0000	-0.0349996
992.0000	-0.0159278
991.0000	-0.00661797
990.0000	0.0108263
989.0000	-0.00153999
988.0000	0.0430703
987.0000	0.0415174
986.0000	0.0246323
985.0000	0.0106686
984.0000	-0.0419074
983.0000	-0.0398728
982.0000	-0.0630206
981.0000	-0.0886041
980.0000	-0.032997
979.0000	-0.0320658
978.0000	-0.0110413
977.0000	-0.0120269
976.0000	0.0270617
975.0000	-0.0126996
974.0000	-0.0110683
973.0000	-0.0233829
972.0000	0.0302957
971.0000	0.0298521
970.0000	0.0143277
969.0000	0.0641768
968.0000	0.0233323
967.0000	0.059763
966.0000	-0.0191052
965.0000	-0.038656
964.0000	-0.00538811
963.0000	0.00795861
962.0000	-0.00657386
961.0000	-0.0148046
960.0000	0.0105555
959.0000	0.004201
958.0000	-0.0157873
957.0000	-0.00359329
956.0000	-0.0263595
955.0000	0.013183
954.0000	0.00755176
953.0000	0.0138065
952.0000	0.0670717
951.0000	0.0533682
950.0000	0.0199022
949.0000	0.0870555
948.0000	0.0092712
947.0000	0.0493937
946.0000	0.0331161
945.0000	0.0165137
944.0000	0.0834135
943.0000	0.0234601
942.0000	0.0197108
941.0000	-0.033232
940.0000	-0.0292736
939.0000	-0.013101
938.0000	-0.0478517
937.0000	-0.00535466
936.0000	-0.0286232
935.0000	0.0160787
934.0000	0.0333706
933.0000	-0.0296391
932.0000	-0.0250548
931.0000	0.0379714
930.0000	0.0701
929.0000	0.073393
928.0000	0.0318772
927.0000	0.0662424
926.0000	0.122795
925.0000	0.0491434
924.0000	-0.0203758
923.0000	0.0412967
922.0000	0.0141349
921.0000	0.0432209
920.0000	0.0684008
919.0000	0.0334776
918.0000	0.0297148
917.0000	0.0221333
916.0000	-0.00881017
915.0000	-0.0894027
914.0000	-0.0513249
913.0000	-0.0827658
912.0000	-0.00757623
911.0000	0.0387877
910.0000	0.0311933
909.0000	0.0422878
908.0000	-0.0103847
907.0000	0.0334833
906.0000	0.0132444
905.0000	-0.0640014
904.0000	-0.0171108
903.0000	-0.0112915
902.0000	0.0751524
901.0000	0.0661605
900.0000	-0.0466343
899.0000	-0.0382485
898.0000	-0.0333497
897.0000	-0.0257695
896.0000	-0.0109945
895.0000	-0.000423757
894.0000	-0.000887577
893.0000	-0.00735849
892.0000	0.00338921
891.0000	-0.00598194
890.0000	-0.00835192
889.0000	-0.00505681
888.0000	-0.00686873
887.0000	-0.00626056
886.0000	-0.00896864
885.0000	-0.0104613
884.0000	-0.00893452
883.0000	-0.0100758
882.0000	-0.00731919
881.0000	-0.00474699
880.0000	-0.00420546
879.0000	-0.00190808
878.0000	-0.00248609
877.0000	-0.00363205
876.0000	-0.00599454
875.0000	-0.00610045
874.0000	-0.0063726
873.0000	-0.00715574
872.0000	-0.0095394
871.0000	-0.00833297
870.0000	-0.0077169
869.0000	-0.00623138
868.0000	-0.00540825
867.0000	-0.00359626
866.0000	-0.00278413
865.0000	-0.00333907
864.0000	-0.00363927
863.0000	-0.00413424
862.0000	-0.00373416
861.0000	-0.00370972
860.0000	-0.00440063
859.0000	-0.00379845
858.0000	-0.00324031
857.0000	-0.00303786
856.0000	-0.00330942
855.0000	-0.00340077
854.0000	-0.0032047
853.0000	-0.00301311
852.0000	-0.00262065
851.0000	-0.00280508
850.0000	-0.00231783
849.0000	-0.0021132
848.0000	-0.00202495
847.0000	-0.00191565
846.0000	-0.00191091
845.0000	-0.00171472
844.0000	-0.00160236
843.0000	-0.00180093
842.0000	-0.00160734
841.0000	-0.00168626
840.0000	-0.00207218
839.0000	-0.00235707
838.0000	-0.00225848
837.0000	-0.00235975
836.0000	-0.00195944
835.0000	-0.00243929
834.0000	-0.00234529
833.0000	-0.00225417
832.0000	-0.00234947
831.0000	-0.00244171
830.0000	-0.00320802
829.0000	-0.00263719
828.0000	-0.00283179
827.0000	-0.00263412
826.0000	-0.00262579
825.0000	-0.00301156
824.0000	-0.00272606
823.0000	-0.00282196
822.0000	-0.00291733
821.0000	-0.00300691
820.0000	-0.00291614
819.0000	-0.00291537
818.0000	-0.00272234
817.0000	-0.00252618
816.0000	-0.00262045
815.0000	-0.00319779
814.0000	-0.00338947
813.0000	-0.00291485
812.0000	-0.00233151
811.0000	-0.00195828
810.0000	-0.00176911
809.0000	-0.00185845
808.0000	-0.00167386
807.0000	-0.00146906
806.0000	-0.00205567
805.0000	-0.0025338
804.0000	-0.00242779
803.0000	-0.0025357
802.0000	-0.00225105
801.0000	-0.00263045
800.0000	-0.00263094
799.0000	-0.00282132
798.0000	-0.00291422
797.0000	-0.00281946
796.0000	-0.00339114
795.0000	-0.00338811
794.0000	-0.0032937
793.0000	-0.00319348
792.0000	-0.00328895
791.0000	-0.00281002
790.0000	-0.00252148
789.0000	-0.0022332
788.0000	-0.00214404
787.0000	-0.00214361
786.0000	-0.00195468
785.0000	-0.00224413
784.0000	-0.00233354
783.0000	-0.00233912
782.0000	-0.00233737
781.0000	-0.00214026
780.0000	-0.00232985
779.0000	-0.0024281
778.0000	-0.00271524
777.0000	-0.00280982
776.0000	-0.00290574
775.0000	-0.00310367
774.0000	-0.00281773
773.0000	-0.00281953
772.0000	-0.0029166
771.0000	-0.0025364
770.0000	-0.00234467
769.0000	-0.00234073
768.0000	-0.00272681
767.0000	-0.00320476
766.0000	-0.00291893
765.0000	-0.00291179
764.0000	-0.00329992
763.0000	-0.00310502
762.0000	-0.00281246
761.0000	-0.00281913
760.0000	-0.00272168
759.0000	-0.00272172
758.0000	-0.00291545
757.0000	-0.00301101
756.0000	-0.00292062
755.0000	-0.00253488
754.0000	-0.0025355
753.0000	-0.00253946
752.0000	-0.00244191
751.0000	-0.00215089
750.0000	-0.00244302
749.0000	-0.00253776
748.0000	-0.00263356
747.0000	-0.0029236
746.0000	-0.00292391
745.0000	-0.00292663
744.0000	-0.00283436
743.0000	-0.00302293
742.0000	-0.00273468
741.0000	-0.0026365
740.0000	-0.00224663
739.0000	-0.00206426
738.0000	-0.0020522
737.0000	-0.00196303
736.0000	-0.00205911
735.0000	-0.00205554
734.0000	-0.00215724
733.0000	-0.00214848
732.0000	-0.00263334
731.0000	-0.00234404
730.0000	-0.00301862
729.0000	-0.00301823
728.0000	-0.00320885
727.0000	-0.00321011
726.0000	-0.00301831
725.0000	-0.00320835
724.0000	-0.00311989
723.0000	-0.0029207
722.0000	-0.00273216
721.0000	-0.00292649
720.0000	-0.00302076
719.0000	-0.0029285
718.0000	-0.00273448
717.0000	-0.00292884
716.0000	-0.00302515
715.0000	-0.00283592
714.0000	-0.00263803
713.0000	-0.00254416
712.0000	-0.00235104
711.0000	-0.00215487
710.0000	-0.00187311
709.0000	-0.00196799
708.0000	-0.00225294
707.0000	-0.00254938
706.0000	-0.00245124
705.0000	-0.00264271
704.0000	-0.00274222
703.0000	-0.00283457
702.0000	-0.00255072
701.0000	-0.00235863
700.0000	-0.00245452
699.0000	-0.00265087
698.0000	-0.00284484
697.0000	-0.00294548
696.0000	-0.00265563
695.0000	-0.00285668
694.0000	-0.00275773
693.0000	-0.00266152
692.0000	-0.0022763
691.0000	-0.00246256
690.0000	-0.00206985
689.0000	-0.00206658
688.0000	-0.00255024
687.0000	-0.00274586
686.0000	-0.00264324
685.0000	-0.00263969
684.0000	-0.00293196
683.0000	-0.00292837
682.0000	-0.00330576
681.0000	-0.00292433
680.0000	-0.00292803
679.0000	-0.00311682
678.0000	-0.00293062
677.0000	-0.00292681
676.0000	-0.00254985
675.0000	-0.00196906
674.0000	-0.00225505
673.0000	-0.00177036
672.0000	-0.00186929
671.0000	-0.00215614
670.0000	-0.00206098
669.0000	-0.00225376
668.0000	-0.00225493
667.0000	-0.00244561
666.0000	-0.00244466
665.0000	-0.00206051
664.0000	-0.00157081
663.0000	-0.00157263
662.0000	-0.00147644
661.0000	-0.00166541
660.0000	-0.00186492
659.0000	-0.00186128
658.0000	-0.00185997
657.0000	-0.00186155
656.0000	-0.00166425
655.0000	-0.00205523
654.0000	-0.00205439
653.0000	-0.00195964
652.0000	-0.00263218
651.0000	-0.00302388
650.0000	-0.00321425
649.0000	-0.00292137
648.0000	-0.00302424
647.0000	-0.00321138
646.0000	-0.00311969
645.0000	-0.00331336
644.0000	-0.00292256
643.0000	-0.00321609
642.0000	-0.0030249
641.0000	-0.00331052
640.0000	-0.00302616
639.0000	-0.00292353
638.0000	-0.00312144
637.0000	-0.00312134
636.0000	-0.00331335
635.0000	-0.00321445
634.0000	-0.0033112
633.0000	-0.00341116
632.0000	-0.0032131
631.0000	-0.00360634
630.0000	-0.00321659
629.0000	-0.00302154
628.0000	-0.00302641
627.0000	-0.00283222
626.0000	-0.00273346
625.0000	-0.00263688
624.0000	-0.00273359
623.0000	-0.0028305
622.0000	-0.00263658
621.0000	-0.00244301
620.0000	-0.0027336
619.0000	-0.00312174
618.0000	-0.00321889
617.0000	-0.00350943
616.0000	-0.00351031
615.0000	-0.00370249
614.0000	-0.00360164
613.0000	-0.00312459
612.0000	-0.00321578
611.0000	-0.00263761
610.0000	-0.0029277
609.0000	-0.00311911
608.0000	-0.00302667
607.0000	-0.00283349
606.0000	-0.00263543
605.0000	-0.00283192
604.0000	-0.00253726
603.0000	-0.00215099
602.0000	-0.00176176
601.0000	-0.00186039
600.0000	-0.00292155
599.0000	-0.00283128
598.0000	-0.00272972
597.0000	-0.00292399
596.0000	-0.00263606
595.0000	-0.00253882
594.0000	-0.00263779
593.0000	-0.00273658
592.0000	-0.00273429
591.0000	-0.00273726
590.0000	-0.00282951
589.0000	-0.00302827
588.0000	-0.0031195
587.0000	-0.00321857
586.0000	-0.00292605
585.0000	-0.00253651
584.0000	-0.00224989
583.0000	-0.00224867
582.0000	-0.00234386
581.0000	-0.0022485
580.0000	-0.00224414
579.0000	-0.00224682
578.0000	-0.00263468
577.0000	-0.00301801
576.0000	-0.00312008
575.0000	-0.00321315
574.0000	-0.00340676
573.0000	-0.00341135
572.0000	-0.00359961
571.0000	-0.00350558
570.0000	-0.00311639
569.0000	-0.00311734
568.0000	-0.00292291
567.0000	-0.00292347
566.0000	-0.00262956
565.0000	-0.00243731
564.0000	-0.0024393
563.0000	-0.00272728
562.0000	-0.0028264
561.0000	-0.00234375
560.0000	-0.0021516
559.0000	-0.00195768
558.0000	-0.00243926
557.0000	-0.00234025
556.0000	-0.00195511
555.0000	-0.00234085
554.0000	-0.00253108
553.0000	-0.00310843
552.0000	-0.00282055
551.0000	-0.00301226
550.0000	-0.00320531
549.0000	-0.0032069
548.0000	-0.00320245
547.0000	-0.00291591
546.0000	-0.0032035
545.0000	-0.00320068
544.0000	-0.00320457
543.0000	-0.00349287
542.0000	-0.00320053
541.0000	-0.00349264
540.0000	-0.00329838
539.0000	-0.00319855
538.0000	-0.00320565
537.0000	-0.0031993
536.0000	-0.0033918
535.0000	-0.00339256
534.0000	-0.00319959
533.0000	-0.00320084
532.0000	-0.00319881
531.0000	-0.0032959
530.0000	-0.00271266
529.0000	-0.00271684
528.0000	-0.00271213
527.0000	-0.00271143
526.0000	-0.00271507
525.0000	-0.00242374
524.0000	-0.00261849
523.0000	-0.00271658
522.0000	-0.00309683
521.0000	-0.00319838
520.0000	-0.0021286
519.0000	-0.00232934
518.0000	-0.00261105
517.0000	-0.00309467
516.0000	-0.00338276
515.0000	-0.00299351
514.0000	-0.00338339
513.0000	-0.00309221
512.0000	-0.00289464
511.0000	-0.00251501
510.0000	-0.00289419
509.0000	-0.00308791
508.0000	-0.00299439
507.0000	-0.00299075
506.0000	-0.00327913
505.0000	-0.00337814
504.0000	-0.00337922
503.0000	-0.00270653
502.0000	-0.002417
501.0000	-0.00261102
500.0000	-0.00261085
499.0000	-0.0026157
498.0000	-0.00241759
497.0000	-0.00251417
496.0000	-0.00280597
495.0000	-0.00289635
494.0000	-0.00318817
493.0000	-0.00328006
492.0000	-0.00328018
491.0000	-0.00366455
490.0000	-0.00366303
489.0000	-0.00385427
488.0000	-0.00346733
487.0000	-0.00347243
486.0000	-0.00337299
485.0000	-0.00337277
484.0000	-0.0035643
483.0000	-0.00337558
482.0000	-0.00308318
481.0000	-0.00318377
480.0000	-0.00336981
479.0000	-0.00317868
478.0000	-0.00289477
477.0000	-0.00269833
476.0000	-0.00289362
475.0000	-0.00289355
474.0000	-0.00298255
473.0000	-0.00299012
472.0000	-0.00279263
471.0000	-0.00326726
470.0000	-0.00298476
469.0000	-0.00298223
468.0000	-0.00288618
467.0000	-0.00278927
466.0000	-0.00279221
465.0000	-0.00269635
464.0000	-0.0023113
463.0000	-0.00231511
462.0000	-0.00211854
461.0000	-0.0023146
460.0000	-0.00240791
459.0000	-0.00278467
458.0000	-0.00279397
457.0000	-0.00278457
456.0000	-0.00287929
455.0000	-0.00307762
454.0000	-0.00259032
453.0000	-0.00269154
452.0000	-0.00278346
451.0000	-0.0027825
450.0000	-0.00259467
449.0000	-0.00268742
448.0000	-0.0030707
447.0000	-0.00316868
446.0000	-0.00287886
445.0000	-0.00278265
444.0000	-0.00268205
443.0000	-0.00268279
442.0000	-0.00287514
441.0000	-0.00239604
440.0000	-0.00278011
439.0000	-0.00287271
438.0000	-0.00278105
437.0000	-0.00268388
436.0000	-0.00258853
435.0000	-0.00268338
434.0000	-0.00296811
433.0000	-0.00258651
432.0000	-0.002679
431.0000	-0.00258269
430.0000	-0.00239206
429.0000	-0.00249084
428.0000	-0.00230516
427.0000	-0.00192102
426.0000	-0.00202041
425.0000	-0.00220482
424.0000	-0.00219888
423.0000	-0.00209994
422.0000	-0.00229
421.0000	-0.00237927
420.0000	-0.00247898
419.0000	-0.00229419
418.0000	-0.00230228
417.0000	-0.00277167
416.0000	-0.00258421
415.0000	-0.00305204
414.0000	-0.00286195
413.0000	-0.00295886
412.0000	-0.00295245
411.0000	-0.00266298
410.0000	-0.00285101
409.0000	-0.00238224
408.0000	-0.0023765
407.0000	-0.00237492
406.0000	-0.00247337
405.0000	-0.00237886
404.0000	-0.00201228
403.0000	-0.00220028
402.0000	-0.00220309
401.0000	-0.00202453
400.0000	-0.00229833
399.0000	-0.00229717
398.0000	-0.00277443
397.0000	-0.00323561
396.0000	-0.00323273
395.0000	-0.00342324
394.0000	-0.00351609
393.0000	-0.00322821
392.0000	-0.00313051
391.0000	-0.00313053
390.0000	-0.00294146
389.0000	-0.00256081
388.0000	-0.00209067
387.0000	-0.00198909
386.0000	-0.00218602
385.0000	-0.00237199
384.0000	-0.00274766
383.0000	-0.00283992
382.0000	-0.0030247
381.0000	-0.0029292
380.0000	-0.00274166
379.0000	-0.00254782
378.0000	-0.00235959
377.0000	-0.00245058
376.0000	-0.00236036
375.0000	-0.00254463
374.0000	-0.00254139
373.0000	-0.00244854
372.0000	-0.00254379
371.0000	-0.00225975
370.0000	-0.00187145
369.0000	-0.0017725
368.0000	-0.00184678
367.0000	-0.00193907
366.0000	-0.00211784
365.0000	-0.00239156
364.0000	-0.00247756
363.0000	-0.0025753
362.0000	-0.00255859
361.0000	-0.00284703
360.0000	-0.00256079
359.0000	-0.00217214
358.0000	-0.00255836
357.0000	-0.0022718
356.0000	-0.00226618
355.0000	-0.00198504
354.0000	-0.00291927
353.0000	-0.00263762
352.0000	-0.00244436
351.0000	-0.002344
350.0000	-0.00244454
349.0000	-0.00253569
348.0000	-0.00243535
347.0000	-0.0019638
346.0000	-0.00187279
345.0000	-0.00243861
344.0000	-0.00271425
343.0000	-0.00318862
342.0000	-0.00300309
341.0000	-0.00318906
340.0000	-0.0022817
339.0000	-0.00281129
338.0000	-0.00250763
337.0000	-0.00249131
336.0000	-0.00271142
335.0000	-0.0026936
334.0000	-0.00292156
333.0000	-0.00346214
332.0000	-0.00344231
331.0000	-0.00345279
330.0000	-0.00324558
329.0000	-0.00291157
328.0000	-0.00365284
327.0000	-0.0037471
326.0000	-0.00322233
325.0000	-0.00311513
324.0000	-0.00279424
323.0000	-0.00267372
322.0000	-0.00236526
321.0000	-0.00215622
320.0000	-0.00245912
319.0000	-0.00267406
318.0000	-0.00309195
317.0000	-0.00361747
316.0000	-0.00373137
315.0000	-0.00351804
314.0000	-0.00340433
313.0000	-0.00331295
312.0000	-0.00320548
311.0000	-0.0029904
310.0000	-0.0023553
309.0000	-0.00246766
308.0000	-0.00267891
307.0000	-0.00298549
306.0000	-0.00320988
305.0000	-0.00308852
304.0000	-0.00320051
303.0000	-0.00277331
302.0000	-0.0026613
301.0000	-0.00246812
300.0000	-0.0022432
