TITLE	n-GaN
DATA TYPE	ULTRAVIOLET SPECTRUM
ORIGIN	JASCO
OWNER	
DATE	19/11/20
TIME	09:47:16
SPECTROMETER/DATA SYSTEM	
RESOLUTION	
DELTAX	-1
XUNITS	NANOMETERS
YUNITS	TRANSMITTANCE
FIRSTX	 2500.0000
LASTX	  300.0000
NPOINTS	    2201
FIRSTY	  -500.00000
MAXY	  -500.00000
MINY	  -500.00000
XYDATA
2500.0000	-15348.4
2499.0000	-15345
2498.0000	-15372.3
2497.0000	-15384.4
2496.0000	-15369.4
2495.0000	-15384.3
2494.0000	-15422.3
2493.0000	-15448.2
2492.0000	-15491
2491.0000	-15530.6
2490.0000	-15548
2489.0000	-15568.5
2488.0000	-15528.2
2487.0000	-15524.2
2486.0000	-15568.1
2485.0000	-15589.5
2484.0000	-15643.9
2483.0000	-15744.3
2482.0000	-15761.7
2481.0000	-15778.6
2480.0000	-15856.2
2479.0000	-15903.6
2478.0000	-15937.4
2477.0000	-15906.8
2476.0000	-15906
2475.0000	-15919.1
2474.0000	-15896
2473.0000	-15883.3
2472.0000	-15872.9
2471.0000	-15885.7
2470.0000	-15948.2
2469.0000	-15992.9
2468.0000	-16025.8
2467.0000	-16083.4
2466.0000	-16092.5
2465.0000	-16090.7
2464.0000	-16092.4
2463.0000	-16105.1
2462.0000	-16141.5
2461.0000	-16143.1
2460.0000	-16161.3
2459.0000	-16181.4
2458.0000	-16224.5
2457.0000	-16254
2456.0000	-16282.7
2455.0000	-16301.3
2454.0000	-16301.9
2453.0000	-16335.5
2452.0000	-16317.6
2451.0000	-16330.5
2450.0000	-16326.8
2449.0000	-16305.8
2448.0000	-16323.8
2447.0000	-16313.4
2446.0000	-16343.5
2445.0000	-16397
2444.0000	-16446.6
2443.0000	-16492.8
2442.0000	-16530
2441.0000	-16552.3
2440.0000	-16569.6
2439.0000	-16570.4
2438.0000	-16575.4
2437.0000	-16611.5
2436.0000	-16623.2
2435.0000	-16645.7
2434.0000	-16703
2433.0000	-16721.4
2432.0000	-16779.5
2431.0000	-16806.5
2430.0000	-16848.9
2429.0000	-16882.4
2428.0000	-16864.4
2427.0000	-16878.6
2426.0000	-16908.4
2425.0000	-16935.2
2424.0000	-16933.1
2423.0000	-16948.2
2422.0000	-16957.8
2421.0000	-16957.1
2420.0000	-16961.9
2419.0000	-16948.9
2418.0000	-16955.5
2417.0000	-16971.6
2416.0000	-16994.6
2415.0000	-17023.5
2414.0000	-17047.4
2413.0000	-17082.9
2412.0000	-17114.3
2411.0000	-17128.6
2410.0000	-17132.6
2409.0000	-17155.7
2408.0000	-17158.2
2407.0000	-17178.6
2406.0000	-17164
2405.0000	-17169.6
2404.0000	-17164.1
2403.0000	-17178.5
2402.0000	-17179.9
2401.0000	-17204
2400.0000	-17211.4
2399.0000	-17226.2
2398.0000	-17241.3
2397.0000	-17237.5
2396.0000	-17244
2395.0000	-17240.8
2394.0000	-17272.9
2393.0000	-17286.2
2392.0000	-17303.7
2391.0000	-17332.3
2390.0000	-17356.1
2389.0000	-17373.9
2388.0000	-17383
2387.0000	-17382.3
2386.0000	-17362.6
2385.0000	-17366
2384.0000	-17353.5
2383.0000	-17344.3
2382.0000	-17352
2381.0000	-17353.9
2380.0000	-17379
2379.0000	-17391.6
2378.0000	-17412.4
2377.0000	-17407
2376.0000	-17420
2375.0000	-17450.6
2374.0000	-17454.4
2373.0000	-17452.6
2372.0000	-17463.6
2371.0000	-17471.3
2370.0000	-17458.5
2369.0000	-17457.1
2368.0000	-17465.8
2367.0000	-17502.3
2366.0000	-17503.5
2365.0000	-17523.6
2364.0000	-17535.8
2363.0000	-17549.9
2362.0000	-17579.9
2361.0000	-17560.3
2360.0000	-17554.1
2359.0000	-17566
2358.0000	-17582.6
2357.0000	-17588.1
2356.0000	-17599
2355.0000	-17589.3
2354.0000	-17596.7
2353.0000	-17599.5
2352.0000	-17601.9
2351.0000	-17596.9
2350.0000	-17581.8
2349.0000	-17576.8
2348.0000	-17545.8
2347.0000	-17556.2
2346.0000	-17564.1
2345.0000	-17574
2344.0000	-17594.3
2343.0000	-17601.2
2342.0000	-17657.4
2341.0000	-17687.5
2340.0000	-17689.4
2339.0000	-17703.4
2338.0000	-17714.6
2337.0000	-17730.3
2336.0000	-17709.8
2335.0000	-17696.9
2334.0000	-17720.1
2333.0000	-17734.3
2332.0000	-17743.4
2331.0000	-17763.1
2330.0000	-17802.2
2329.0000	-17786.9
2328.0000	-17797.3
2327.0000	-17794.2
2326.0000	-17784
2325.0000	-17784.7
2324.0000	-17744.2
2323.0000	-17755.7
2322.0000	-17755.4
2321.0000	-17733.6
2320.0000	-17761.1
2319.0000	-17745.9
2318.0000	-17742.9
2317.0000	-17754.6
2316.0000	-17743.5
2315.0000	-17743.4
2314.0000	-17717.7
2313.0000	-17714.7
2312.0000	-17739
2311.0000	-17728.6
2310.0000	-17707.7
2309.0000	-17708.7
2308.0000	-17705.8
2307.0000	-17702.7
2306.0000	-17712.1
2305.0000	-17703.5
2304.0000	-17701.2
2303.0000	-17685.9
2302.0000	-17690.9
2301.0000	-17699.3
2300.0000	-17697.1
2299.0000	-17689.5
2298.0000	-17711.3
2297.0000	-17719.5
2296.0000	-17708.6
2295.0000	-17727
2294.0000	-17724.5
2293.0000	-17716.5
2292.0000	-17733
2291.0000	-17750.7
2290.0000	-17746.1
2289.0000	-17742.6
2288.0000	-17740.4
2287.0000	-17752.3
2286.0000	-17735.2
2285.0000	-17716
2284.0000	-17712.5
2283.0000	-17717.8
2282.0000	-17710.2
2281.0000	-17705
2280.0000	-17732.6
2279.0000	-17747.1
2278.0000	-17764.3
2277.0000	-17755
2276.0000	-17757.2
2275.0000	-17750.3
2274.0000	-17758.7
2273.0000	-17745.2
2272.0000	-17734.6
2271.0000	-17737.6
2270.0000	-17698.3
2269.0000	-17705.6
2268.0000	-17687.1
2267.0000	-17702.5
2266.0000	-17688.5
2265.0000	-17707.6
2264.0000	-17711.1
2263.0000	-17738.4
2262.0000	-17756.1
2261.0000	-17731.8
2260.0000	-17738.6
2259.0000	-17733.8
2258.0000	-17751
2257.0000	-17733.1
2256.0000	-17753
2255.0000	-17745.1
2254.0000	-17742.4
2253.0000	-17735
2252.0000	-17730.4
2251.0000	-17733.7
2250.0000	-17744
2249.0000	-17743.2
2248.0000	-17743.9
2247.0000	-17764
2246.0000	-17777.3
2245.0000	-17783
2244.0000	-17757.9
2243.0000	-17755.5
2242.0000	-17753.8
2241.0000	-17742.5
2240.0000	-17738.4
2239.0000	-17712.9
2238.0000	-17723
2237.0000	-17701.3
2236.0000	-17717.6
2235.0000	-17697.9
2234.0000	-17708
2233.0000	-17702.2
2232.0000	-17693.8
2231.0000	-17715.4
2230.0000	-17719.6
2229.0000	-17729.8
2228.0000	-17720.6
2227.0000	-17710.9
2226.0000	-17694.7
2225.0000	-17698.1
2224.0000	-17669.5
2223.0000	-17666.2
2222.0000	-17641.3
2221.0000	-17635.1
2220.0000	-17637.5
2219.0000	-17644
2218.0000	-17639.8
2217.0000	-17614.5
2216.0000	-17644.9
2215.0000	-17632.7
2214.0000	-17635.4
2213.0000	-17624.9
2212.0000	-17611.2
2211.0000	-17624.4
2210.0000	-17630.4
2209.0000	-17630.7
2208.0000	-17623.7
2207.0000	-17632.3
2206.0000	-17680.5
2205.0000	-17696.2
2204.0000	-17716.6
2203.0000	-17744.9
2202.0000	-17775.6
2201.0000	-17812.2
2200.0000	-17832.3
2199.0000	-17848.5
2198.0000	-17891.7
2197.0000	-17924.1
2196.0000	-17979.9
2195.0000	-17996
2194.0000	-18022.9
2193.0000	-18052.7
2192.0000	-18083.1
2191.0000	-18106.7
2190.0000	-18114.8
2189.0000	-18109.4
2188.0000	-18137.7
2187.0000	-18148.2
2186.0000	-18148.3
2185.0000	-18165.6
2184.0000	-18174.6
2183.0000	-18200.6
2182.0000	-18246.3
2181.0000	-18268.4
2180.0000	-18297.1
2179.0000	-18288.1
2178.0000	-18294.4
2177.0000	-18298.2
2176.0000	-18285.9
2175.0000	-18286.9
2174.0000	-18286.5
2173.0000	-18305.9
2172.0000	-18328
2171.0000	-18361
2170.0000	-18372.5
2169.0000	-18384.4
2168.0000	-18399.3
2167.0000	-18393.8
2166.0000	-18405.6
2165.0000	-18396.4
2164.0000	-18418.9
2163.0000	-18411.8
2162.0000	-18407.8
2161.0000	-18445.1
2160.0000	-18446.1
2159.0000	-18473.6
2158.0000	-18452.3
2157.0000	-18470.8
2156.0000	-18487.2
2155.0000	-18486.2
2154.0000	-18480.2
2153.0000	-18499.9
2152.0000	-18523.9
2151.0000	-18521.6
2150.0000	-18538.7
2149.0000	-18534.8
2148.0000	-18551.7
2147.0000	-18547.8
2146.0000	-18537.6
2145.0000	-18536.6
2144.0000	-18529.4
2143.0000	-18535.7
2142.0000	-18537.3
2141.0000	-18538.6
2140.0000	-18552.8
2139.0000	-18564.8
2138.0000	-18569.5
2137.0000	-18589.9
2136.0000	-18562.6
2135.0000	-18580.5
2134.0000	-18611.4
2133.0000	-18601.3
2132.0000	-18622.4
2131.0000	-18623.9
2130.0000	-18627.2
2129.0000	-18637.5
2128.0000	-18621.3
2127.0000	-18627.8
2126.0000	-18623
2125.0000	-18616.1
2124.0000	-18633.1
2123.0000	-18633.4
2122.0000	-18646.9
2121.0000	-18658.4
2120.0000	-18690.1
2119.0000	-18697
2118.0000	-18686.4
2117.0000	-18697.3
2116.0000	-18705.3
2115.0000	-18686.5
2114.0000	-18662.5
2113.0000	-18650.1
2112.0000	-18656.9
2111.0000	-18667.3
2110.0000	-18667.1
2109.0000	-18666
2108.0000	-18713.3
2107.0000	-18713.1
2106.0000	-18727.3
2105.0000	-18730.9
2104.0000	-18708
2103.0000	-18725.3
2102.0000	-18699.6
2101.0000	-18733.2
2100.0000	-18736.7
2099.0000	-18729.2
2098.0000	-18745
2097.0000	-18752.4
2096.0000	-18768.6
2095.0000	-18749.3
2094.0000	-18747.9
2093.0000	-18759.1
2092.0000	-18759.8
2091.0000	-18759.6
2090.0000	-18743.2
2089.0000	-18749.2
2088.0000	-18757.4
2087.0000	-18771.4
2086.0000	-18771.1
2085.0000	-18770.2
2084.0000	-18769.7
2083.0000	-18769.8
2082.0000	-18784.8
2081.0000	-18767.5
2080.0000	-18787.8
2079.0000	-18777.9
2078.0000	-18783.8
2077.0000	-18790.9
2076.0000	-18807.6
2075.0000	-18800.9
2074.0000	-18786.5
2073.0000	-18810.8
2072.0000	-18826.9
2071.0000	-18826.7
2070.0000	-18811.5
2069.0000	-18815.1
2068.0000	-18827
2067.0000	-18804.6
2066.0000	-18806.7
2065.0000	-18813.8
2064.0000	-18832.2
2063.0000	-18831.1
2062.0000	-18837.2
2061.0000	-18846.4
2060.0000	-18841.8
2059.0000	-18837.1
2058.0000	-18838.8
2057.0000	-18847.4
2056.0000	-18847.9
2055.0000	-18843.1
2054.0000	-18860.7
2053.0000	-18850.1
2052.0000	-18859.9
2051.0000	-18854.6
2050.0000	-18850.9
2049.0000	-18854
2048.0000	-18854
2047.0000	-18878.8
2046.0000	-18868.9
2045.0000	-18884.1
2044.0000	-18908
2043.0000	-18901.9
2042.0000	-18904.2
2041.0000	-18893.4
2040.0000	-18917.5
2039.0000	-18934.8
2038.0000	-18913.2
2037.0000	-18934.1
2036.0000	-18933.6
2035.0000	-18952
2034.0000	-18942.9
2033.0000	-18956.7
2032.0000	-18971.8
2031.0000	-18978.8
2030.0000	-18976
2029.0000	-18977.1
2028.0000	-18993.3
2027.0000	-18983.4
2026.0000	-18953.9
2025.0000	-18960.2
2024.0000	-18952.4
2023.0000	-18953.2
2022.0000	-18958.1
2021.0000	-18953.3
2020.0000	-18967.5
2019.0000	-18954.1
2018.0000	-18952.1
2017.0000	-18952.2
2016.0000	-18950.7
2015.0000	-18972.8
2014.0000	-18978.7
2013.0000	-18980.5
2012.0000	-18999.6
2011.0000	-19013.9
2010.0000	-19019.9
2009.0000	-19036.2
2008.0000	-19043
2007.0000	-19029.3
2006.0000	-19034.2
2005.0000	-19020.6
2004.0000	-19045.3
2003.0000	-19022.7
2002.0000	-18994
2001.0000	-19021.1
2000.0000	-19015.1
1999.0000	-19012.8
1998.0000	-19005.2
1997.0000	-19002.7
1996.0000	-19053.1
1995.0000	-19067.3
1994.0000	-19075.5
1993.0000	-19075.2
1992.0000	-19096
1991.0000	-19125.1
1990.0000	-19120
1989.0000	-19136.1
1988.0000	-19142.4
1987.0000	-19171.3
1986.0000	-19149.8
1985.0000	-19165.6
1984.0000	-19166.5
1983.0000	-19168.2
1982.0000	-19166
1981.0000	-19144.1
1980.0000	-19166.6
1979.0000	-19164.6
1978.0000	-19171.1
1977.0000	-19149.5
1976.0000	-19142.1
1975.0000	-19139.3
1974.0000	-19164.2
1973.0000	-19172.1
1972.0000	-19187.9
1971.0000	-19213.5
1970.0000	-19225.5
1969.0000	-19267.3
1968.0000	-19286.8
1967.0000	-19298.5
1966.0000	-19293.1
1965.0000	-19287.1
1964.0000	-19309.7
1963.0000	-19272.9
1962.0000	-19283.3
1961.0000	-19265.6
1960.0000	-19237
1959.0000	-19209
1958.0000	-19182.8
1957.0000	-19158
1956.0000	-19135.6
1955.0000	-19104.2
1954.0000	-19098.4
1953.0000	-19078.6
1952.0000	-19072.8
1951.0000	-19056.5
1950.0000	-19028.8
1949.0000	-19012.5
1948.0000	-18997.9
1947.0000	-18986.3
1946.0000	-18945.7
1945.0000	-18935.9
1944.0000	-18911.1
1943.0000	-18869.1
1942.0000	-18825.1
1941.0000	-18809.3
1940.0000	-18773.3
1939.0000	-18750
1938.0000	-18735
1937.0000	-18710.4
1936.0000	-18738.7
1935.0000	-18726
1934.0000	-18702
1933.0000	-18672.7
1932.0000	-18639.1
1931.0000	-18577.8
1930.0000	-18535.3
1929.0000	-18496.5
1928.0000	-18485.4
1927.0000	-18499.8
1926.0000	-18455.9
1925.0000	-18392.3
1924.0000	-18315.4
1923.0000	-18203.5
1922.0000	-18093.9
1921.0000	-18047.3
1920.0000	-18047
1919.0000	-18056.1
1918.0000	-18093.4
1917.0000	-18106.3
1916.0000	-18084.5
1915.0000	-18045.4
1914.0000	-18005.1
1913.0000	-18009.9
1912.0000	-18014
1911.0000	-18029
1910.0000	-18047.6
1909.0000	-17996.6
1908.0000	-17882.4
1907.0000	-17778.9
1906.0000	-17690.5
1905.0000	-17599.9
1904.0000	-17584.2
1903.0000	-17563.9
1902.0000	-17611.5
1901.0000	-17676.2
1900.0000	-17835.6
1899.0000	-18003.8
1898.0000	-18155.4
1897.0000	-18327.1
1896.0000	-18468.8
1895.0000	-18576.7
1894.0000	-18604.9
1893.0000	-18600
1892.0000	-18603.2
1891.0000	-18637.5
1890.0000	-18685
1889.0000	-18744.2
1888.0000	-18813.6
1887.0000	-18822.1
1886.0000	-18840.7
1885.0000	-18868.9
1884.0000	-18912.6
1883.0000	-18935.3
1882.0000	-18959.4
1881.0000	-18970
1880.0000	-18938.6
1879.0000	-18832.6
1878.0000	-18671.3
1877.0000	-18485.5
1876.0000	-18227.6
1875.0000	-18009.5
1874.0000	-17789.1
1873.0000	-17625.8
1872.0000	-17574.8
1871.0000	-17607.8
1870.0000	-17750.6
1869.0000	-17992.4
1868.0000	-18285.7
1867.0000	-18589.4
1866.0000	-18839.9
1865.0000	-18996.6
1864.0000	-19088.2
1863.0000	-19115.9
1862.0000	-19066.5
1861.0000	-19012.7
1860.0000	-18940.6
1859.0000	-18894.3
1858.0000	-18869.6
1857.0000	-18865
1856.0000	-18903.9
1855.0000	-18976.4
1854.0000	-19030.7
1853.0000	-19078.3
1852.0000	-19067.9
1851.0000	-19023.2
1850.0000	-18950
1849.0000	-18917.7
1848.0000	-18937.6
1847.0000	-18976
1846.0000	-19043
1845.0000	-19112
1844.0000	-19169.1
1843.0000	-19168.6
1842.0000	-19109.7
1841.0000	-19032.9
1840.0000	-18905
1839.0000	-18842.3
1838.0000	-18891
1837.0000	-18990.4
1836.0000	-19109.4
1835.0000	-19238.2
1834.0000	-19360.9
1833.0000	-19483.5
1832.0000	-19577.1
1831.0000	-19607.8
1830.0000	-19639.4
1829.0000	-19674.4
1828.0000	-19739.9
1827.0000	-19827.9
1826.0000	-19911.3
1825.0000	-19974.5
1824.0000	-19999.1
1823.0000	-20031.1
1822.0000	-20040.3
1821.0000	-20054.9
1820.0000	-20102.5
1819.0000	-20132.9
1818.0000	-20229.2
1817.0000	-20309.5
1816.0000	-20403.2
1815.0000	-20466.5
1814.0000	-20519.2
1813.0000	-20564.3
1812.0000	-20626.4
1811.0000	-20662.6
1810.0000	-20708.8
1809.0000	-20749.8
1808.0000	-20780
1807.0000	-20811.1
1806.0000	-20825.8
1805.0000	-20864.2
1804.0000	-20909.9
1803.0000	-20933.3
1802.0000	-20967.7
1801.0000	-21014.5
1800.0000	-21064.6
1799.0000	-21108
1798.0000	-21140.6
1797.0000	-21189.8
1796.0000	-21225.7
1795.0000	-21271.9
1794.0000	-21289.8
1793.0000	-21325.8
1792.0000	-21354.5
1791.0000	-21364.1
1790.0000	-21405.6
1789.0000	-21439.2
1788.0000	-21459.3
1787.0000	-21498.1
1786.0000	-21538.2
1785.0000	-21581.3
1784.0000	-21630.8
1783.0000	-21646.5
1782.0000	-21683.4
1781.0000	-21725.8
1780.0000	-21759.8
1779.0000	-21789
1778.0000	-21822.8
1777.0000	-21860
1776.0000	-21899.7
1775.0000	-21936.9
1774.0000	-21968.6
1773.0000	-22006.2
1772.0000	-22038.1
1771.0000	-22072.6
1770.0000	-22101.9
1769.0000	-22145.8
1768.0000	-22179.7
1767.0000	-22215.8
1766.0000	-22254.1
1765.0000	-22285.2
1764.0000	-22328
1763.0000	-22361.4
1762.0000	-22399.4
1761.0000	-22433.5
1760.0000	-22473.5
1759.0000	-22499.7
1758.0000	-22545.4
1757.0000	-22580.7
1756.0000	-22619.2
1755.0000	-22654.2
1754.0000	-22686.5
1753.0000	-22730.8
1752.0000	-22763.9
1751.0000	-22797.4
1750.0000	-22822.5
1749.0000	-22876.5
1748.0000	-22895
1747.0000	-22928.2
1746.0000	-22950.3
1745.0000	-22982.5
1744.0000	-23010.5
1743.0000	-23019.5
1742.0000	-23041.8
1741.0000	-23054.9
1740.0000	-23062.9
1739.0000	-23080.4
1738.0000	-23088.5
1737.0000	-23093.9
1736.0000	-23103.7
1735.0000	-23105
1734.0000	-23109.3
1733.0000	-23089.8
1732.0000	-23072.8
1731.0000	-23046.4
1730.0000	-23023.2
1729.0000	-22999.3
1728.0000	-22962.8
1727.0000	-22923.5
1726.0000	-22897.2
1725.0000	-22852.8
1724.0000	-22796.7
1723.0000	-22743.3
1722.0000	-22678.7
1721.0000	-22612.6
1720.0000	-22541.4
1719.0000	-22461.3
1718.0000	-22390.1
1717.0000	-22299.3
1716.0000	-22226.8
1715.0000	-22149.4
1714.0000	-22062.3
1713.0000	-21969.4
1712.0000	-21882.5
1711.0000	-21790.4
1710.0000	-21705
1709.0000	-21604.2
1708.0000	-21521.9
1707.0000	-21434.5
1706.0000	-21354.8
1705.0000	-21265.4
1704.0000	-21193.4
1703.0000	-21125.7
1702.0000	-21060.9
1701.0000	-21006.4
1700.0000	-20934.2
1699.0000	-20871.3
1698.0000	-20816.1
1697.0000	-20772.4
1696.0000	-20747.7
1695.0000	-20746.6
1694.0000	-20765
1693.0000	-20812.5
1692.0000	-20891.1
1691.0000	-20943.1
1690.0000	-21020
1689.0000	-21083.6
1688.0000	-21140.8
1687.0000	-21196.8
1686.0000	-21233.8
1685.0000	-21287.2
1684.0000	-21323.4
1683.0000	-21374.4
1682.0000	-21420.9
1681.0000	-21458.1
1680.0000	-21496
1679.0000	-21518.2
1678.0000	-21573.3
1677.0000	-21613.4
1676.0000	-21657.2
1675.0000	-21712.4
1674.0000	-21746.9
1673.0000	-21805.2
1672.0000	-21850.3
1671.0000	-21888.6
1670.0000	-21930.4
1669.0000	-21975.2
1668.0000	-22012.4
1667.0000	-22049.6
1666.0000	-22083.4
1665.0000	-22108.8
1664.0000	-22136.3
1663.0000	-22148
1662.0000	-22163.2
1661.0000	-22162.5
1660.0000	-22154.5
1659.0000	-22136.7
1658.0000	-22093.5
1657.0000	-22032.7
1656.0000	-21960.7
1655.0000	-21874.8
1654.0000	-21783.2
1653.0000	-21698.2
1652.0000	-21624
1651.0000	-21592.1
1650.0000	-21554.4
1649.0000	-21537.5
1648.0000	-21557.7
1647.0000	-21555.6
1646.0000	-21560.7
1645.0000	-21576.1
1644.0000	-21586.3
1643.0000	-21600
1642.0000	-21601.8
1641.0000	-21616.9
1640.0000	-21621.3
1639.0000	-21625.8
1638.0000	-21622.8
1637.0000	-21627.3
1636.0000	-21650.2
1635.0000	-21652.7
1634.0000	-21651.8
1633.0000	-21672.1
1632.0000	-21676
1631.0000	-21690.7
1630.0000	-21683.5
1629.0000	-21689.2
1628.0000	-21705
1627.0000	-21716.2
1626.0000	-21720.6
1625.0000	-21716.8
1624.0000	-21732.5
1623.0000	-21734
1622.0000	-21739.1
1621.0000	-21751.3
1620.0000	-21754.8
1619.0000	-21774
1618.0000	-21768.7
1617.0000	-21765.9
1616.0000	-21773.8
1615.0000	-21777.4
1614.0000	-21773.3
1613.0000	-21784.9
1612.0000	-21796.9
1611.0000	-21801.9
1610.0000	-21803.6
1609.0000	-21807.4
1608.0000	-21821.5
1607.0000	-21829.2
1606.0000	-21846.8
1605.0000	-21855.2
1604.0000	-21861.7
1603.0000	-21878.4
1602.0000	-21883.9
1601.0000	-21906
1600.0000	-21909.5
1599.0000	-21912.7
1598.0000	-21927.2
1597.0000	-21933.2
1596.0000	-21942
1595.0000	-21937.4
1594.0000	-21935.2
1593.0000	-21947.5
1592.0000	-21956.8
1591.0000	-21964.1
1590.0000	-21971.4
1589.0000	-21981.4
1588.0000	-21989.6
1587.0000	-21993.2
1586.0000	-22013.9
1585.0000	-22019.4
1584.0000	-22030.5
1583.0000	-22031.5
1582.0000	-22032.7
1581.0000	-22047.3
1580.0000	-22047.8
1579.0000	-22052.1
1578.0000	-22066.9
1577.0000	-22062.5
1576.0000	-22079.9
1575.0000	-22088
1574.0000	-22089.2
1573.0000	-22095.7
1572.0000	-22104.4
1571.0000	-22112.2
1570.0000	-22110
1569.0000	-22122.3
1568.0000	-22140.5
1567.0000	-22140.2
1566.0000	-22140
1565.0000	-22155.9
1564.0000	-22169.8
1563.0000	-22176.2
1562.0000	-22170.9
1561.0000	-22180.8
1560.0000	-22203.8
1559.0000	-22211.7
1558.0000	-22214.8
1557.0000	-22212.6
1556.0000	-22229.3
1555.0000	-22237.6
1554.0000	-22245.7
1553.0000	-22248.1
1552.0000	-22256.5
1551.0000	-22267.2
1550.0000	-22268.8
1549.0000	-22282
1548.0000	-22275.7
1547.0000	-22287.1
1546.0000	-22282.6
1545.0000	-22291.2
1544.0000	-22304
1543.0000	-22306.3
1542.0000	-22317.8
1541.0000	-22324.7
1540.0000	-22334.5
1539.0000	-22348.3
1538.0000	-22358.2
1537.0000	-22368.2
1536.0000	-22377
1535.0000	-22378.3
1534.0000	-22385.3
1533.0000	-22388.4
1532.0000	-22398.1
1531.0000	-22408.9
1530.0000	-22421.8
1529.0000	-22435.3
1528.0000	-22443.1
1527.0000	-22458.2
1526.0000	-22460.9
1525.0000	-22471
1524.0000	-22471
1523.0000	-22469.9
1522.0000	-22470.2
1521.0000	-22466.6
1520.0000	-22479.3
1519.0000	-22478.1
1518.0000	-22484.9
1517.0000	-22502.6
1516.0000	-22522.8
1515.0000	-22531.4
1514.0000	-22531.5
1513.0000	-22536.4
1512.0000	-22545.3
1511.0000	-22547
1510.0000	-22553.5
1509.0000	-22564.3
1508.0000	-22575.9
1507.0000	-22580.9
1506.0000	-22590.9
1505.0000	-22589.5
1504.0000	-22584.5
1503.0000	-22589.5
1502.0000	-22590.1
1501.0000	-22590.2
1500.0000	-22595
1499.0000	-22613.9
1498.0000	-22619.4
1497.0000	-22624.9
1496.0000	-22634.2
1495.0000	-22642.2
1494.0000	-22649
1493.0000	-22645.8
1492.0000	-22655.9
1491.0000	-22656.9
1490.0000	-22649.9
1489.0000	-22657.9
1488.0000	-22667.2
1487.0000	-22671.2
1486.0000	-22679
1485.0000	-22679.8
1484.0000	-22691.3
1483.0000	-22690.1
1482.0000	-22694.2
1481.0000	-22704.8
1480.0000	-22703.3
1479.0000	-22703.8
1478.0000	-22704
1477.0000	-22712.1
1476.0000	-22718.4
1475.0000	-22709.5
1474.0000	-22712.7
1473.0000	-22719.4
1472.0000	-22726.1
1471.0000	-22721
1470.0000	-22728.7
1469.0000	-22743.7
1468.0000	-22754.8
1467.0000	-22767.5
1466.0000	-22779.4
1465.0000	-22797.3
1464.0000	-22800.7
1463.0000	-22801.2
1462.0000	-22813.5
1461.0000	-22829.4
1460.0000	-22829.5
1459.0000	-22830.1
1458.0000	-22841.4
1457.0000	-22839
1456.0000	-22835.9
1455.0000	-22831.1
1454.0000	-22832.8
1453.0000	-22836.6
1452.0000	-22835.4
1451.0000	-22838.6
1450.0000	-22838.4
1449.0000	-22832.8
1448.0000	-22820
1447.0000	-22820.6
1446.0000	-22818.2
1445.0000	-22817.6
1444.0000	-22822.4
1443.0000	-22835.8
1442.0000	-22833.5
1441.0000	-22842.4
1440.0000	-22844.6
1439.0000	-22862.2
1438.0000	-22863.8
1437.0000	-22864.7
1436.0000	-22867.7
1435.0000	-22859.9
1434.0000	-22859.7
1433.0000	-22863.9
1432.0000	-22854.7
1431.0000	-22852
1430.0000	-22854.3
1429.0000	-22861
1428.0000	-22868.3
1427.0000	-22875.5
1426.0000	-22876.5
1425.0000	-22883.2
1424.0000	-22872.8
1423.0000	-22872.8
1422.0000	-22860.5
1421.0000	-22858.8
1420.0000	-22857.3
1419.0000	-22854.5
1418.0000	-22847.1
1417.0000	-22843
1416.0000	-22849.8
1415.0000	-22841.3
1414.0000	-22828.1
1413.0000	-22813.4
1412.0000	-22814.9
1411.0000	-22787.3
1410.0000	-22753.2
1409.0000	-22746.7
1408.0000	-22739.4
1407.0000	-22734.6
1406.0000	-22721.1
1405.0000	-22725.4
1404.0000	-22726.5
1403.0000	-22723.8
1402.0000	-22708.8
1401.0000	-22699.3
1400.0000	-22691.4
1399.0000	-22664.5
1398.0000	-22645.4
1397.0000	-22631.6
1396.0000	-22637.8
1395.0000	-22662.4
1394.0000	-22677.2
1393.0000	-22704.6
1392.0000	-22738
1391.0000	-22755.5
1390.0000	-22756.8
1389.0000	-22733.4
1388.0000	-22706.7
1387.0000	-22644
1386.0000	-22576.1
1385.0000	-22527
1384.0000	-22492.3
1383.0000	-22495
1382.0000	-22519.2
1381.0000	-22578.5
1380.0000	-22674.4
1379.0000	-22760.6
1378.0000	-22831.8
1377.0000	-22881
1376.0000	-22898.4
1375.0000	-22899.5
1374.0000	-22882.3
1373.0000	-22848.6
1372.0000	-22813.7
1371.0000	-22775.8
1370.0000	-22754
1369.0000	-22723.6
1368.0000	-22711
1367.0000	-22693.8
1366.0000	-22675.8
1365.0000	-22656.2
1364.0000	-22653.5
1363.0000	-22668.8
1362.0000	-22694.6
1361.0000	-22728.8
1360.0000	-22769.5
1359.0000	-22827.5
1358.0000	-22870.7
1357.0000	-22908.5
1356.0000	-22946.6
1355.0000	-22994.9
1354.0000	-23042.4
1353.0000	-23093.8
1352.0000	-23129.1
1351.0000	-23172.2
1350.0000	-23212
1349.0000	-23233
1348.0000	-23261.6
1347.0000	-23265.7
1346.0000	-23277.7
1345.0000	-23292.3
1344.0000	-23301.5
1343.0000	-23312.2
1342.0000	-23312.9
1341.0000	-23327.1
1340.0000	-23323
1339.0000	-23336.2
1338.0000	-23332.8
1337.0000	-23338.1
1336.0000	-23340.1
1335.0000	-23332.8
1334.0000	-23339.7
1333.0000	-23342.1
1332.0000	-23356.2
1331.0000	-23365.2
1330.0000	-23367
1329.0000	-23377.2
1328.0000	-23381.5
1327.0000	-23385.6
1326.0000	-23387
1325.0000	-23392.5
1324.0000	-23400
1323.0000	-23408.5
1322.0000	-23406.6
1321.0000	-23416
1320.0000	-23414.5
1319.0000	-23420
1318.0000	-23415.1
1317.0000	-23417.5
1316.0000	-23423.3
1315.0000	-23423
1314.0000	-23421.7
1313.0000	-23425.3
1312.0000	-23429.8
1311.0000	-23436
1310.0000	-23439.3
1309.0000	-23446.9
1308.0000	-23449.3
1307.0000	-23453.5
1306.0000	-23455.1
1305.0000	-23450.7
1304.0000	-23456.2
1303.0000	-23458.5
1302.0000	-23462.1
1301.0000	-23470
1300.0000	-23477.4
1299.0000	-23477
1298.0000	-23477.6
1297.0000	-23489.1
1296.0000	-23488.2
1295.0000	-23489.5
1294.0000	-23480.5
1293.0000	-23487
1292.0000	-23491.4
1291.0000	-23494.7
1290.0000	-23491
1289.0000	-23495.6
1288.0000	-23506.1
1287.0000	-23511.9
1286.0000	-23517.9
1285.0000	-23514.2
1284.0000	-23524.2
1283.0000	-23521.6
1282.0000	-23524.7
1281.0000	-23524.3
1280.0000	-23536.2
1279.0000	-23552.4
1278.0000	-23546
1277.0000	-23549.9
1276.0000	-23554.3
1275.0000	-23557.9
1274.0000	-23561.6
1273.0000	-23559.6
1272.0000	-23558
1271.0000	-23560
1270.0000	-23558.2
1269.0000	-23559.6
1268.0000	-23562.1
1267.0000	-23568.1
1266.0000	-23570.2
1265.0000	-23576.5
1264.0000	-23579.3
1263.0000	-23586.4
1262.0000	-23593.2
1261.0000	-23593.5
1260.0000	-23589.7
1259.0000	-23591
1258.0000	-23591.4
1257.0000	-23596.4
1256.0000	-23595.6
1255.0000	-23599.1
1254.0000	-23604.1
1253.0000	-23605.9
1252.0000	-23611.6
1251.0000	-23614.6
1250.0000	-23617.2
1249.0000	-23619
1248.0000	-23622.6
1247.0000	-23620.3
1246.0000	-23625.1
1245.0000	-23625.7
1244.0000	-23626.7
1243.0000	-23627.9
1242.0000	-23627.2
1241.0000	-23624.6
1240.0000	-23631.7
1239.0000	-23637.1
1238.0000	-23643.3
1237.0000	-23656.6
1236.0000	-23660.9
1235.0000	-23667.7
1234.0000	-23672.9
1233.0000	-23671.6
1232.0000	-23674.5
1231.0000	-23674.6
1230.0000	-23689.1
1229.0000	-23692.9
1228.0000	-23699.1
1227.0000	-23701.7
1226.0000	-23709.9
1225.0000	-23707
1224.0000	-23708.8
1223.0000	-23706.1
1222.0000	-23702.1
1221.0000	-23709.9
1220.0000	-23709.9
1219.0000	-23717
1218.0000	-23718.1
1217.0000	-23717.7
1216.0000	-23728.2
1215.0000	-23726
1214.0000	-23728.5
1213.0000	-23721.4
1212.0000	-23726.4
1211.0000	-23729.5
1210.0000	-23721.6
1209.0000	-23723.2
1208.0000	-23725.9
1207.0000	-23725.1
1206.0000	-23717.2
1205.0000	-23712
1204.0000	-23705.5
1203.0000	-23698
1202.0000	-23687.5
1201.0000	-23665.5
1200.0000	-23556.3
1199.0000	-23541.6
1198.0000	-23525.2
1197.0000	-23502.4
1196.0000	-23472.1
1195.0000	-23446
1194.0000	-23424
1193.0000	-23397.4
1192.0000	-23369.6
1191.0000	-23342.5
1190.0000	-23320.5
1189.0000	-23305.1
1188.0000	-23290
1187.0000	-23273.1
1186.0000	-23264.7
1185.0000	-23265.6
1184.0000	-23258.2
1183.0000	-23266.1
1182.0000	-23267
1181.0000	-23271.4
1180.0000	-23283
1179.0000	-23286.2
1178.0000	-23296.9
1177.0000	-23292.6
1176.0000	-23289.1
1175.0000	-23290.6
1174.0000	-23286.3
1173.0000	-23279.8
1172.0000	-23276.2
1171.0000	-23286.9
1170.0000	-23289.4
1169.0000	-23284.2
1168.0000	-23285.7
1167.0000	-23295
1166.0000	-23298.2
1165.0000	-23291.8
1164.0000	-23286.3
1163.0000	-23286.5
1162.0000	-23288.4
1161.0000	-23281.3
1160.0000	-23270.8
1159.0000	-23270
1158.0000	-23272
1157.0000	-23265.7
1156.0000	-23260.7
1155.0000	-23266.7
1154.0000	-23266.9
1153.0000	-23262.5
1152.0000	-23264.1
1151.0000	-23257.2
1150.0000	-23262.5
1149.0000	-23245
1148.0000	-23244.3
1147.0000	-23244.8
1146.0000	-23240
1145.0000	-23229.7
1144.0000	-23235.2
1143.0000	-23237.5
1142.0000	-23240.1
1141.0000	-23241.8
1140.0000	-23229.8
1139.0000	-23231
1138.0000	-23223.6
1137.0000	-23224.1
1136.0000	-23216.2
1135.0000	-23209.8
1134.0000	-23210
1133.0000	-23215.6
1132.0000	-23221.7
1131.0000	-23219.7
1130.0000	-23216
1129.0000	-23210.2
1128.0000	-23211.1
1127.0000	-23206.5
1126.0000	-23199.5
1125.0000	-23188.1
1124.0000	-23188.1
1123.0000	-23191.7
1122.0000	-23189.6
1121.0000	-23190.7
1120.0000	-23197.4
1119.0000	-23208.6
1118.0000	-23218.4
1117.0000	-23216.9
1116.0000	-23222
1115.0000	-23218.4
1114.0000	-23217.9
1113.0000	-23203.6
1112.0000	-23197.4
1111.0000	-23197.1
1110.0000	-23184.9
1109.0000	-23187.9
1108.0000	-23188.3
1107.0000	-23190.9
1106.0000	-23193.7
1105.0000	-23187.5
1104.0000	-23190.6
1103.0000	-23188.2
1102.0000	-23180
1101.0000	-23173.5
1100.0000	-23167
1099.0000	-23154.9
1098.0000	-23147.4
1097.0000	-23149.8
1096.0000	-23141.9
1095.0000	-23149.1
1094.0000	-23150.7
1093.0000	-23152.6
1092.0000	-23154.7
1091.0000	-23151.8
1090.0000	-23145.4
1089.0000	-23140.3
1088.0000	-23133.5
1087.0000	-23119.7
1086.0000	-23124.8
1085.0000	-23110.1
1084.0000	-23111.9
1083.0000	-23112.3
1082.0000	-23110.8
1081.0000	-23105.3
1080.0000	-23099.6
1079.0000	-23095.1
1078.0000	-23093.1
1077.0000	-23080.7
1076.0000	-23068
1075.0000	-23067.1
1074.0000	-23068
1073.0000	-23062.6
1072.0000	-23052.4
1071.0000	-23052
1070.0000	-23046.4
1069.0000	-23048.5
1068.0000	-23036
1067.0000	-23029.8
1066.0000	-23021.4
1065.0000	-23014.5
1064.0000	-23011.7
1063.0000	-23008.1
1062.0000	-23003.5
1061.0000	-22994
1060.0000	-22994.9
1059.0000	-22995
1058.0000	-22994.5
1057.0000	-22982.2
1056.0000	-22972.9
1055.0000	-22961.8
1054.0000	-22952.4
1053.0000	-22952
1052.0000	-22940.1
1051.0000	-22925
1050.0000	-22918.4
1049.0000	-22915.6
1048.0000	-22898.5
1047.0000	-22879.2
1046.0000	-22854.9
1045.0000	-22841.9
1044.0000	-22836.1
1043.0000	-22822.4
1042.0000	-22814.2
1041.0000	-22802.5
1040.0000	-22796.8
1039.0000	-22787
1038.0000	-22764.5
1037.0000	-22737.4
1036.0000	-22727.8
1035.0000	-22707.1
1034.0000	-22693.4
1033.0000	-22675.5
1032.0000	-22661.6
1031.0000	-22647.3
1030.0000	-22624.7
1029.0000	-22608.7
1028.0000	-22580.7
1027.0000	-22555.9
1026.0000	-22531.1
1025.0000	-22505.2
1024.0000	-22468.7
1023.0000	-22442.1
1022.0000	-22416.8
1021.0000	-22393.9
1020.0000	-22362.3
1019.0000	-22342.5
1018.0000	-22332.4
1017.0000	-22303.7
1016.0000	-22279.3
1015.0000	-22254.2
1014.0000	-22246.9
1013.0000	-22220.4
1012.0000	-22195.3
1011.0000	-22182
1010.0000	-22179.7
1009.0000	-22168.2
1008.0000	-22169.6
1007.0000	-22155.1
1006.0000	-22138.5
1005.0000	-22134.1
1004.0000	-22114.9
1003.0000	-22096.2
1002.0000	-22067.1
1001.0000	-22061.5
1000.0000	-22048.4
999.0000	-22028
998.0000	-22008.7
997.0000	-22004.1
996.0000	-21978.8
995.0000	-21959.4
994.0000	-21943.6
993.0000	-21926.5
992.0000	-21910
991.0000	-21882.4
990.0000	-21858.1
989.0000	-21848.5
988.0000	-21837.3
987.0000	-21797.4
986.0000	-21769.4
985.0000	-21753.9
984.0000	-21739.5
983.0000	-21719.7
982.0000	-21691.7
981.0000	-21678
980.0000	-21657.9
979.0000	-21629.3
978.0000	-21606.6
977.0000	-21576.2
976.0000	-21550.7
975.0000	-21527.3
974.0000	-21500.1
973.0000	-21482.9
972.0000	-21455.4
971.0000	-21421.9
970.0000	-21395.1
969.0000	-21338.7
968.0000	-21307.7
967.0000	-21278.1
966.0000	-21245.7
965.0000	-21205.4
964.0000	-21172.1
963.0000	-21147.9
962.0000	-21105.8
961.0000	-21071.6
960.0000	-21023.7
959.0000	-20991.7
958.0000	-20957.4
957.0000	-20915.9
956.0000	-20878.7
955.0000	-20843.6
954.0000	-20807.1
953.0000	-20753.9
952.0000	-20714.1
951.0000	-20673.9
950.0000	-20621.5
949.0000	-20554.2
948.0000	-20513.3
947.0000	-20473.7
946.0000	-20425
945.0000	-20366.2
944.0000	-20319.4
943.0000	-20279.1
942.0000	-20233.7
941.0000	-20167.7
940.0000	-20107.5
939.0000	-20046.8
938.0000	-19978.5
937.0000	-19937
936.0000	-19856.2
935.0000	-19803.1
934.0000	-19750.9
933.0000	-19692.6
932.0000	-19632.5
931.0000	-19576.1
930.0000	-19496.1
929.0000	-19440.2
928.0000	-19364.7
927.0000	-19290.4
926.0000	-19210.2
925.0000	-19139.5
924.0000	-19053
923.0000	-18978.9
922.0000	-18907.6
921.0000	-18815.7
920.0000	-18740.7
919.0000	-18642.7
918.0000	-18577.5
917.0000	-18498.5
916.0000	-18421.8
915.0000	-18329.3
914.0000	-18261.7
913.0000	-18207.4
912.0000	-18107
911.0000	-18019.3
910.0000	-17921.1
909.0000	-17829.7
908.0000	-17719.7
907.0000	-17600.8
906.0000	-17489.9
905.0000	-17384.6
904.0000	-17285.8
903.0000	-17161.8
902.0000	-17060.4
901.0000	-16938.2
900.0000	-30316.4
899.0000	-30257.7
898.0000	-30199.1
897.0000	-30065.2
896.0000	-30041.5
895.0000	-30097.3
894.0000	-30075.1
893.0000	-30012.5
892.0000	-29965.9
891.0000	-30034.4
890.0000	-30004.4
889.0000	-29960.2
888.0000	-29956.1
887.0000	-29919.7
886.0000	-29975.6
885.0000	-29971.8
884.0000	-29956.4
883.0000	-29960
882.0000	-29923.3
881.0000	-29917.7
880.0000	-29884.9
879.0000	-29840.2
878.0000	-29832.3
877.0000	-29810.4
876.0000	-29823.1
875.0000	-29797.5
874.0000	-29822.1
873.0000	-29809
872.0000	-29784.9
871.0000	-29787.6
870.0000	-29775.3
869.0000	-29764.7
868.0000	-29764
867.0000	-29749.6
866.0000	-29734.2
865.0000	-29718.8
864.0000	-29705.5
863.0000	-29704.3
862.0000	-29691.8
861.0000	-29686.6
860.0000	-29683.6
859.0000	-29681.1
858.0000	-29663.1
857.0000	-29642.7
856.0000	-29620.5
855.0000	-29604.6
854.0000	-29576.1
853.0000	-29558.1
852.0000	-29543.6
851.0000	-29532
850.0000	-29508.4
849.0000	-29502
848.0000	-29480.7
847.0000	-29457.2
846.0000	-29434.5
845.0000	-29414
844.0000	-29399.2
843.0000	-29376.4
842.0000	-29361.6
841.0000	-29347.9
840.0000	-29336.8
839.0000	-29331.6
838.0000	-29319.8
837.0000	-29312.7
836.0000	-29303.1
835.0000	-29291
834.0000	-29279.1
833.0000	-29270.9
832.0000	-29260.3
831.0000	-29243.6
830.0000	-29238.6
829.0000	-29236.5
828.0000	-29229.7
827.0000	-29220
826.0000	-29212.7
825.0000	-29215.5
824.0000	-29202.5
823.0000	-29192.9
822.0000	-29179.1
821.0000	-29175.4
820.0000	-29169.6
819.0000	-29169.1
818.0000	-29177.6
817.0000	-29166.8
816.0000	-29177.9
815.0000	-29173.9
814.0000	-29166.3
813.0000	-29164.5
812.0000	-29155.6
811.0000	-29155.2
810.0000	-29156.9
809.0000	-29150.9
808.0000	-29154.9
807.0000	-29163
806.0000	-29154.2
805.0000	-29150.6
804.0000	-29147.2
803.0000	-29149.2
802.0000	-29145
801.0000	-29143.9
800.0000	-29144.5
799.0000	-29147.7
798.0000	-29149.8
797.0000	-29147.4
796.0000	-29150.9
795.0000	-29147.9
794.0000	-29145.6
793.0000	-29144
792.0000	-29150.4
791.0000	-29149.4
790.0000	-29152.1
789.0000	-29150.2
788.0000	-29156
787.0000	-29159.1
786.0000	-29157.2
785.0000	-29156.8
784.0000	-29158.8
783.0000	-29162.5
782.0000	-29157.2
781.0000	-29162.5
780.0000	-29167.4
779.0000	-29169
778.0000	-29171.7
777.0000	-29169.9
776.0000	-29175.4
775.0000	-29180.6
774.0000	-29181
773.0000	-29189.4
772.0000	-29190.8
771.0000	-29196.6
770.0000	-29200.5
769.0000	-29204
768.0000	-29203.1
767.0000	-29199.3
766.0000	-29203.1
765.0000	-29206.1
764.0000	-29215
763.0000	-29217.4
762.0000	-29224
761.0000	-29228.5
760.0000	-29233.9
759.0000	-29228.9
758.0000	-29231
757.0000	-29230.8
756.0000	-29228.5
755.0000	-29236.9
754.0000	-29238
753.0000	-29250
752.0000	-29254.3
751.0000	-29256.3
750.0000	-29266.2
749.0000	-29266.8
748.0000	-29273.2
747.0000	-29269.4
746.0000	-29275.8
745.0000	-29280.8
744.0000	-29285.8
743.0000	-29287.7
742.0000	-29293.4
741.0000	-29296.7
740.0000	-29269
739.0000	-29274.1
738.0000	-29274.4
737.0000	-29277.2
736.0000	-29278.8
735.0000	-29279.8
734.0000	-29279.1
733.0000	-29278.5
732.0000	-29278.2
731.0000	-29280.7
730.0000	-29280.2
729.0000	-29279.5
728.0000	-29278.7
727.0000	-29287.4
726.0000	-29286.4
725.0000	-29296
724.0000	-29303.5
723.0000	-29315.4
722.0000	-29321.8
721.0000	-29323.7
720.0000	-29330.1
719.0000	-29329.8
718.0000	-29337
717.0000	-29336
716.0000	-29339.9
715.0000	-29343
714.0000	-29344.5
713.0000	-29349.7
712.0000	-29346.3
711.0000	-29351.5
710.0000	-29349
709.0000	-29349.6
708.0000	-29354.4
707.0000	-29354
706.0000	-29358.2
705.0000	-29356.8
704.0000	-29355.8
703.0000	-29357.2
702.0000	-29350.6
701.0000	-29355.3
700.0000	-29359.4
699.0000	-29366.9
698.0000	-29380.8
697.0000	-29396.2
696.0000	-29422.8
695.0000	-29446.8
694.0000	-29483.2
693.0000	-29517.1
692.0000	-29554.2
691.0000	-29585.9
690.0000	-29616
689.0000	-29631.6
688.0000	-29637.4
687.0000	-29637.9
686.0000	-29625
685.0000	-29612.4
684.0000	-29590.3
683.0000	-29574
682.0000	-29537
681.0000	-29510.6
680.0000	-29483.6
679.0000	-29462.2
678.0000	-29440.1
677.0000	-29427.2
676.0000	-29421.1
675.0000	-29425.2
674.0000	-29428.7
673.0000	-29428.6
672.0000	-29432.4
671.0000	-29430.6
670.0000	-29435.5
669.0000	-29433.9
668.0000	-29433.2
667.0000	-29432.8
666.0000	-29432.7
665.0000	-29434.3
664.0000	-29432.8
663.0000	-29434.1
662.0000	-29431.9
661.0000	-29432.5
660.0000	-29431
659.0000	-29431.3
658.0000	-29427.4
657.0000	-29425.5
656.0000	-29423.5
655.0000	-29420
654.0000	-29415
653.0000	-29413
652.0000	-29410
651.0000	-29405.2
650.0000	-29400.1
649.0000	-29397.2
648.0000	-29400.4
647.0000	-29397.4
646.0000	-29399.6
645.0000	-29396.1
644.0000	-29402.4
643.0000	-29401.8
642.0000	-29401.3
641.0000	-29404.1
640.0000	-29401.1
639.0000	-29407.5
638.0000	-29402.5
637.0000	-29405.3
636.0000	-29400.7
635.0000	-29402.4
634.0000	-29399.4
633.0000	-29400.9
632.0000	-29396.7
631.0000	-29402.1
630.0000	-29397.8
629.0000	-29401
628.0000	-29400.4
627.0000	-29399.8
626.0000	-29402.2
625.0000	-29398.1
624.0000	-29398.3
623.0000	-29391.3
622.0000	-29391.8
621.0000	-29387.5
620.0000	-29383.9
619.0000	-29379.5
618.0000	-29375.6
617.0000	-29370.7
616.0000	-29366.6
615.0000	-29363.5
614.0000	-29361.6
613.0000	-29356.8
612.0000	-29353.9
611.0000	-29357.2
610.0000	-29350.6
609.0000	-29351
608.0000	-29345.6
607.0000	-29344.7
606.0000	-29342
605.0000	-29341.2
604.0000	-29342.2
603.0000	-29343.3
602.0000	-29343.5
601.0000	-29343.4
600.0000	-29375.6
599.0000	-29373.3
598.0000	-29370.9
597.0000	-29368.2
596.0000	-29366.7
595.0000	-29366.3
594.0000	-29363.2
593.0000	-29359.3
592.0000	-29353
591.0000	-29350.8
590.0000	-29346.7
589.0000	-29344.5
588.0000	-29342
587.0000	-29337.2
586.0000	-29336.3
585.0000	-29338.9
584.0000	-29337.9
583.0000	-29333.7
582.0000	-29337.2
581.0000	-29327.8
580.0000	-29333.3
579.0000	-29330.4
578.0000	-29331.2
577.0000	-29328.2
576.0000	-29329.5
575.0000	-29326.2
574.0000	-29327.3
573.0000	-29326.1
572.0000	-29319.8
571.0000	-29318.5
570.0000	-29314.8
569.0000	-29313
568.0000	-29306.6
567.0000	-29307.2
566.0000	-29301.8
565.0000	-29300.1
564.0000	-29303.1
563.0000	-29295.2
562.0000	-29298.5
561.0000	-29295.1
560.0000	-29293.6
559.0000	-29290.6
558.0000	-29288.8
557.0000	-29284.8
556.0000	-29284.7
555.0000	-29284.9
554.0000	-29282.2
553.0000	-29282.5
552.0000	-29277.8
551.0000	-29271.5
550.0000	-29264
549.0000	-29260.4
548.0000	-29250.1
547.0000	-29248.7
546.0000	-29244
545.0000	-29241.9
544.0000	-29239.1
543.0000	-29239.2
542.0000	-29234.5
541.0000	-29236.3
540.0000	-29233
539.0000	-29229.4
538.0000	-29232.7
537.0000	-29227.2
536.0000	-29232.4
535.0000	-29223.2
534.0000	-29226.9
533.0000	-29220.8
532.0000	-29216.4
531.0000	-29211.2
530.0000	-29206.8
529.0000	-29206.3
528.0000	-29200.7
527.0000	-29202.9
526.0000	-29197.3
525.0000	-29194.7
524.0000	-29186.3
523.0000	-29187
522.0000	-29179.8
521.0000	-29180.1
520.0000	-29165.9
519.0000	-29163.7
518.0000	-29162.7
517.0000	-29158.9
516.0000	-29156.1
515.0000	-29156.7
514.0000	-29155.2
513.0000	-29155.6
512.0000	-29153.2
511.0000	-29148.7
510.0000	-29148.4
509.0000	-29145
508.0000	-29140.4
507.0000	-29134.9
506.0000	-29136.8
505.0000	-29135.2
504.0000	-29133.8
503.0000	-29130.1
502.0000	-29124.4
501.0000	-29123.1
500.0000	-29120.8
499.0000	-29113.8
498.0000	-29111.8
497.0000	-29110.3
496.0000	-29107.3
495.0000	-29106.2
494.0000	-29101.3
493.0000	-29095.5
492.0000	-29094.3
491.0000	-29090.9
490.0000	-29085.8
489.0000	-29080.9
488.0000	-29080.7
487.0000	-29075
486.0000	-29071.5
485.0000	-29066.5
484.0000	-29063.6
483.0000	-29059.9
482.0000	-29054.8
481.0000	-29052.6
480.0000	-29046.4
479.0000	-29046.6
478.0000	-29037.8
477.0000	-29038.1
476.0000	-29036.5
475.0000	-29032.4
474.0000	-29025.6
473.0000	-29027.9
472.0000	-29023.2
471.0000	-29021.8
470.0000	-29014.2
469.0000	-29011.9
468.0000	-29010.8
467.0000	-29009.5
466.0000	-29006
465.0000	-29005.6
464.0000	-29008.6
463.0000	-29004.8
462.0000	-29010.1
461.0000	-29010.8
460.0000	-29011.5
459.0000	-29016.8
458.0000	-29020.8
457.0000	-29026.8
456.0000	-29031.1
455.0000	-29036.2
454.0000	-29036.2
453.0000	-29041.3
452.0000	-29043.5
451.0000	-29042.1
450.0000	-29038.2
449.0000	-29036
448.0000	-29031.6
447.0000	-29025.9
446.0000	-29020.6
445.0000	-29012
444.0000	-29007.7
443.0000	-28994.3
442.0000	-28991.8
441.0000	-28980.1
440.0000	-28970.4
439.0000	-28958
438.0000	-28948.4
437.0000	-28937.3
436.0000	-28920.6
435.0000	-28911.6
434.0000	-28896.4
433.0000	-28889.7
432.0000	-28874.1
431.0000	-28867.6
430.0000	-28858
429.0000	-28858.6
428.0000	-28857.5
427.0000	-28857.2
426.0000	-28873.7
425.0000	-28882.7
424.0000	-28892
423.0000	-28900.9
422.0000	-28908.1
421.0000	-28913.5
420.0000	-28760.9
419.0000	-28748.5
418.0000	-28747.3
417.0000	-28740.9
416.0000	-28739.2
415.0000	-28742.9
414.0000	-28748.2
413.0000	-28757.2
412.0000	-28766
411.0000	-28768.2
410.0000	-28774.7
409.0000	-28769.2
408.0000	-28772.6
407.0000	-28753.9
406.0000	-28740.8
405.0000	-28728.5
404.0000	-28710.8
403.0000	-28693.7
402.0000	-28667.5
401.0000	-28658.2
400.0000	-28645.9
399.0000	-28642.8
398.0000	-28635.8
397.0000	-28643.8
396.0000	-28649.9
395.0000	-28658.9
394.0000	-28656.3
393.0000	-28664.5
392.0000	-28662.2
391.0000	-28653.3
390.0000	-28644.4
389.0000	-28633.3
388.0000	-28620.1
387.0000	-28612.2
386.0000	-28602
385.0000	-28592.5
384.0000	-28593.1
383.0000	-28585.5
382.0000	-28580.1
381.0000	-28571
380.0000	-28563.9
379.0000	-28564.5
378.0000	-28555.3
377.0000	-28547.5
376.0000	-28536.2
375.0000	-28535.7
374.0000	-28527.9
373.0000	-28520.9
372.0000	-28509.4
371.0000	-28505.6
370.0000	-28500
369.0000	-28514
368.0000	-28509.7
367.0000	-28517.9
366.0000	-28529.5
365.0000	-28533.3
364.0000	-28532.2
363.0000	-28527.4
362.0000	-28523.3
361.0000	-28525
360.0000	-28508.9
359.0000	-28505.9
358.0000	-28486.3
357.0000	-28493.3
356.0000	-28480.2
355.0000	-28483.4
354.0000	-28479.6
353.0000	-28465.5
352.0000	-28456.5
351.0000	-28450.2
350.0000	-28434.3
349.0000	-28416.6
348.0000	-28409.5
347.0000	-28404.7
346.0000	-28405.3
345.0000	-28391.6
344.0000	-28388.9
343.0000	-28381
342.0000	-28365.9
341.0000	-28352.8
340.0000	-32372.4
339.0000	-32347.8
338.0000	-32341.8
337.0000	-32336.3
336.0000	-32341.6
335.0000	-32331.7
334.0000	-32321.4
333.0000	-32304
332.0000	-32312.2
331.0000	-32281.7
330.0000	-32254.8
329.0000	-32226.3
328.0000	-32211.2
327.0000	-32207.5
326.0000	-32166.6
325.0000	-32161.4
324.0000	-32146
323.0000	-32140.3
322.0000	-32116.9
321.0000	-32092.9
320.0000	-32088.1
319.0000	-32089.5
318.0000	-32086.4
317.0000	-32063.3
316.0000	-32062
315.0000	-32045.6
314.0000	-32045
313.0000	-32009.6
312.0000	-32008.6
311.0000	-31968
310.0000	-31956.3
309.0000	-31948.7
308.0000	-31911.6
307.0000	-31897.4
306.0000	-31878.9
305.0000	-31865.8
304.0000	-31857
303.0000	-31855.1
302.0000	-31830.1
301.0000	-31822.6
300.0000	-31803.9
